# field on trajectory
# s[mm] rx[mm] ry[mm] rz[mm] bx[T] by[T] bz[T]
-0.0000000000000000e+00 +8.5270000000000206e+00 +0.0000000000000000e+00 -0.0000000000000000e+00 -2.7239596528037410e-02 -5.2400979887224530e-01 +5.0564559863757724e-03
-5.0000000000000003e-02 +8.5269999309457507e+00 +0.0000000000000000e+00 -4.9999999999936401e-02 -2.7239434764220506e-02 -5.2401151699956627e-01 +5.0557059826783993e-03
-1.0000000000000001e-01 +8.5269997237846802e+00 +0.0000000000000000e+00 -9.9999999999491399e-02 -2.7239289282074433e-02 -5.2401357438450458e-01 +5.0549633439766865e-03
-1.4999999999999999e-01 +8.5269993785186706e+00 +0.0000000000000000e+00 -1.4999999999828301e-01 -2.7239160146169849e-02 -5.2401597014080237e-01 +5.0542281043613364e-03
-2.0000000000000001e-01 +8.5269988951477007e+00 +0.0000000000000000e+00 -1.9999999999593099e-01 -2.7239047421079153e-02 -5.2401870338222967e-01 +5.0535002979233733e-03
-2.5000000000000000e-01 +8.5269982736681396e+00 +0.0000000000000000e+00 -2.4999999999205300e-01 -2.7238951171376990e-02 -5.2402177322259547e-01 +5.0527799587542690e-03
-2.9999999999999999e-01 +8.5269975140799907e+00 +0.0000000000000000e+00 -2.9999999998626697e-01 -2.7238871461637771e-02 -5.2402517877569799e-01 +5.0520671209454745e-03
-3.4999999999999998e-01 +8.5269966163905302e+00 +0.0000000000000000e+00 -3.4999999997819298e-01 -2.7238808356434205e-02 -5.2402891915530114e-01 +5.0513618185882127e-03
-4.0000000000000002e-01 +8.5269955805888493e+00 +0.0000000000000000e+00 -3.9999999996744801e-01 -2.7238761920346671e-02 -5.2403299347530763e-01 +5.0506640857751290e-03
-4.5000000000000001e-01 +8.5269944066858407e+00 +0.0000000000000000e+00 -4.4999999995365197e-01 -2.7238732217948584e-02 -5.2403740084948380e-01 +5.0499739565977014e-03
-5.0000000000000000e-01 +8.5269930946742498e+00 +0.0000000000000000e+00 -4.9999999993642202e-01 -2.7238719313821012e-02 -5.2404214039173680e-01 +5.0492914651488604e-03
-5.5000000000000004e-01 +8.5269916445577092e+00 +0.0000000000000000e+00 -5.4999999991537796e-01 -2.7238723272542051e-02 -5.2404721121591147e-01 +5.0486166455211015e-03
-5.9999999999999998e-01 +8.5269900563289394e+00 +0.0000000000000000e+00 -5.9999999989013697e-01 -2.7238744158694816e-02 -5.2405261243594348e-01 +5.0479495318079227e-03
-6.5000000000000002e-01 +8.5269883299988596e+00 +0.0000000000000000e+00 -6.4999999986031898e-01 -2.7238782036856736e-02 -5.2405834316565647e-01 +5.0472901581019303e-03
-6.9999999999999996e-01 +8.5269864655601904e+00 +0.0000000000000000e+00 -6.9999999982554195e-01 -2.7238836971612945e-02 -5.2406440251901321e-01 +5.0466385584972285e-03
-7.5000000000000000e-01 +8.5269844630165608e+00 +0.0000000000000000e+00 -7.4999999978542398e-01 -2.7238909027545603e-02 -5.2407078960991649e-01 +5.0459947670875331e-03
-8.0000000000000004e-01 +8.5269823223679904e+00 +0.0000000000000000e+00 -7.9999999973958402e-01 -2.7238998269239180e-02 -5.2407750355230664e-01 +5.0453588179671218e-03
-8.4999999999999998e-01 +8.5269800436108198e+00 +0.0000000000000000e+00 -8.4999999968764095e-01 -2.7239104761280542e-02 -5.2408454346016486e-01 +5.0447307452308543e-03
-9.0000000000000002e-01 +8.5269776267450705e+00 +0.0000000000000000e+00 -8.9999999962921295e-01 -2.7239228568256217e-02 -5.2409190844745923e-01 +5.0441105829737102e-03
-9.4999999999999996e-01 +8.5269750717743609e+00 +0.0000000000000000e+00 -9.4999999956391801e-01 -2.7239369754752395e-02 -5.2409959762814806e-01 +5.0434983652907885e-03
-1.0000000000000000e+00 +8.5269723786986997e+00 +0.0000000000000000e+00 -9.9999999949137597e-01 -2.7239528385357658e-02 -5.2410761011622731e-01 +5.0428941262778042e-03
-1.0500000000000000e+00 +8.5269695475144491e+00 +0.0000000000000000e+00 -1.0499999994111999e+00 -2.7239704524662886e-02 -5.2411594502573244e-01 +5.0422979000310925e-03
-1.1000000000000001e+00 +8.5269665782288904e+00 +0.0000000000000000e+00 -1.0999999993230201e+00 -2.7239898237256074e-02 -5.2412460147063755e-01 +5.0417097206466822e-03
-1.1499999999999999e+00 +8.5269634708311095e+00 +0.0000000000000000e+00 -1.1499999992264500e+00 -2.7240109587732809e-02 -5.2413357856505527e-01 +5.0411296222221784e-03
-1.2000000000000000e+00 +8.5269602253283701e+00 +0.0000000000000000e+00 -1.1999999991210999e+00 -2.7240338640683068e-02 -5.2414287542298643e-01 +5.0405576388544305e-03
-1.2500000000000000e+00 +8.5269568417206791e+00 +0.0000000000000000e+00 -1.2499999990065900e+00 -2.7240585460700528e-02 -5.2415249115849538e-01 +5.0399938046411918e-03
-1.3000000000000000e+00 +8.5269533200044005e+00 +0.0000000000000000e+00 -1.2999999988825499e+00 -2.7240850112381206e-02 -5.2416242488568554e-01 +5.0394381536808868e-03
-1.3500000000000001e+00 +8.5269496601795307e+00 +0.0000000000000000e+00 -1.3499999987485900e+00 -2.7241132660320830e-02 -5.2417267571864823e-01 +5.0388907200721519e-03
-1.3999999999999999e+00 +8.5269458622533403e+00 +0.0000000000000000e+00 -1.3999999986043401e+00 -2.7241433169113469e-02 -5.2418324277143780e-01 +5.0383515379136224e-03
-1.4500000000000000e+00 +8.5269419262185693e+00 +0.0000000000000000e+00 -1.4499999984494001e+00 -2.7241751703359542e-02 -5.2419412515822228e-01 +5.0378206413053388e-03
-1.5000000000000000e+00 +8.5269378520752106e+00 +0.0000000000000000e+00 -1.4999999982833900e+00 -2.7242088327657843e-02 -5.2420532199313308e-01 +5.0372980643473573e-03
-1.5500000000000000e+00 +8.5269336398268898e+00 +0.0000000000000000e+00 -1.5499999981059500e+00 -2.7242443106606881e-02 -5.2421683239028949e-01 +5.0367838411399975e-03
-1.6000000000000001e+00 +8.5269292894736299e+00 +0.0000000000000000e+00 -1.5999999979166799e+00 -2.7242816104807464e-02 -5.2422865546384834e-01 +5.0362780057843096e-03
-1.6499999999999999e+00 +8.5269248010117700e+00 +0.0000000000000000e+00 -1.6499999977152000e+00 -2.7243207386862821e-02 -5.2424079032800619e-01 +5.0357805923821036e-03
-1.7000000000000000e+00 +8.5269201744449692e+00 +0.0000000000000000e+00 -1.6999999975011300e+00 -2.7243617017374523e-02 -5.2425323609692021e-01 +5.0352916350352352e-03
-1.7500000000000000e+00 +8.5269154097695701e+00 +0.0000000000000000e+00 -1.7499999972740901e+00 -2.7244045060947825e-02 -5.2426599188481282e-01 +5.0348111678465823e-03
-1.8000000000000000e+00 +8.5269105069892195e+00 +0.0000000000000000e+00 -1.7999999970336999e+00 -2.7244491582186364e-02 -5.2427905680586773e-01 +5.0343392249190847e-03
-1.8500000000000001e+00 +8.5269054661039299e+00 +0.0000000000000000e+00 -1.8499999967795799e+00 -2.7244956645696126e-02 -5.2429242997430692e-01 +5.0338758403564859e-03
-1.8999999999999999e+00 +8.5269002871100401e+00 +0.0000000000000000e+00 -1.8999999965113501e+00 -2.7245440316085487e-02 -5.2430611050439069e-01 +5.0334210482633332e-03
-1.9500000000000000e+00 +8.5268949700112007e+00 +0.0000000000000000e+00 -1.9499999962286201e+00 -2.7245942657961174e-02 -5.2432009751034137e-01 +5.0329748827442821e-03
-2.0000000000000000e+00 +8.5268895148037700e+00 +0.0000000000000000e+00 -1.9999999959310100e+00 -2.7246463735933604e-02 -5.2433439010644445e-01 +5.0325373779050563e-03
-2.0499999999999998e+00 +8.5268839213858900e+00 +0.0000000000000000e+00 -2.0499999956181298e+00 -2.7247003559403248e-02 -5.2434898722870582e-01 +5.0321085584011192e-03
-2.1000000000000001e+00 +8.5268781896593300e+00 +0.0000000000000000e+00 -2.0999999952895898e+00 -2.7247561916781359e-02 -5.2436388709723769e-01 +5.0316884110594776e-03
-2.1499999999999999e+00 +8.5268723196240899e+00 +0.0000000000000000e+00 -2.1499999949449999e+00 -2.7248138541195961e-02 -5.2437908775251030e-01 +5.0312769132439487e-03
-2.2000000000000002e+00 +8.5268663112729008e+00 +0.0000000000000000e+00 -2.1999999945839801e+00 -2.7248733165777573e-02 -5.2439458723505550e-01 +5.0308740423191450e-03
-2.2500000000000000e+00 +8.5268601646093902e+00 +0.0000000000000000e+00 -2.2499999942061502e+00 -2.7249345523652588e-02 -5.2441038358533765e-01 +5.0304797756493026e-03
-2.2999999999999998e+00 +8.5268538796335598e+00 +0.0000000000000000e+00 -2.2999999938111202e+00 -2.7249975347948395e-02 -5.2442647484385607e-01 +5.0300940905991832e-03
-2.3500000000000001e+00 +8.5268474563490599e+00 +0.0000000000000000e+00 -2.3499999933985198e+00 -2.7250622371790774e-02 -5.2444285905109300e-01 +5.0297169645336327e-03
-2.3999999999999999e+00 +8.5268408947522403e+00 +0.0000000000000000e+00 -2.3999999929679601e+00 -2.7251286328307790e-02 -5.2445953424759018e-01 +5.0293483748182627e-03
-2.4500000000000002e+00 +8.5268341948467405e+00 +0.0000000000000000e+00 -2.4499999925190501e+00 -2.7251966950624384e-02 -5.2447649847384703e-01 +5.0289882988184985e-03
-2.5000000000000000e+00 +8.5268273566252901e+00 +0.0000000000000000e+00 -2.4999999920514302e+00 -2.7252663971868981e-02 -5.2449374977044672e-01 +5.0286367139007609e-03
-2.5499999999999998e+00 +8.5268203800987994e+00 +0.0000000000000000e+00 -2.5499999915646900e+00 -2.7253377125162740e-02 -5.2451128617785425e-01 +5.0282935974305708e-03
-2.6000000000000001e+00 +8.5268132652563509e+00 +0.0000000000000000e+00 -2.5999999910584699e+00 -2.7254106143634244e-02 -5.2452910573669409e-01 +5.0279589267751340e-03
-2.6499999999999999e+00 +8.5268060121015896e+00 +0.0000000000000000e+00 -2.6499999905323701e+00 -2.7254850760405978e-02 -5.2454720648749653e-01 +5.0276326793009798e-03
-2.7000000000000002e+00 +8.5267986206345103e+00 +0.0000000000000000e+00 -2.6999999899860101e+00 -2.7255610708601007e-02 -5.2456558647082463e-01 +5.0273148323751260e-03
-2.7500000000000000e+00 +8.5267910908551094e+00 +0.0000000000000000e+00 -2.7499999894190199e+00 -2.7256385721341571e-02 -5.2458424372724899e-01 +5.0270053633648549e-03
-2.7999999999999998e+00 +8.5267834227670392e+00 +0.0000000000000000e+00 -2.7999999888310101e+00 -2.7257175531747644e-02 -5.2460317629732056e-01 +5.0267042496374426e-03
-2.8500000000000001e+00 +8.5267756163666508e+00 +0.0000000000000000e+00 -2.8499999882215898e+00 -2.7257979872940964e-02 -5.2462238222164836e-01 +5.0264114685608877e-03
-2.8999999999999999e+00 +8.5267676716539391e+00 +0.0000000000000000e+00 -2.8999999875903901e+00 -2.7258798478040858e-02 -5.2464185954082232e-01 +5.0261269975031796e-03
-2.9500000000000002e+00 +8.5267595886289200e+00 +0.0000000000000000e+00 -2.9499999869370299e+00 -2.7259631080165585e-02 -5.2466160629543834e-01 +5.0258508138325371e-03
-3.0000000000000000e+00 +8.5267513672915793e+00 +0.0000000000000000e+00 -2.9999999862611100e+00 -2.7260477412432257e-02 -5.2468162052609812e-01 +5.0255828949173935e-03
-3.0499999999999998e+00 +8.5267430076455604e+00 +0.0000000000000000e+00 -3.0499999855622502e+00 -2.7261337207955410e-02 -5.2470190027338437e-01 +5.0253232181261690e-03
-3.1000000000000001e+00 +8.5267345096872305e+00 +0.0000000000000000e+00 -3.0999999848400801e+00 -2.7262210199850964e-02 -5.2472244357793441e-01 +5.0250717608279500e-03
-3.1499999999999999e+00 +8.5267258734165807e+00 +0.0000000000000000e+00 -3.1499999840942201e+00 -2.7263096121232192e-02 -5.2474324848036735e-01 +5.0248285003917960e-03
-3.2000000000000002e+00 +8.5267170988336094e+00 +0.0000000000000000e+00 -3.1999999833242700e+00 -2.7263994705210938e-02 -5.2476431302130611e-01 +5.0245934141869546e-03
-3.2500000000000000e+00 +8.5267081859419704e+00 +0.0000000000000000e+00 -3.2499999825298600e+00 -2.7264905684896212e-02 -5.2478563524135302e-01 +5.0243664795826285e-03
-3.2999999999999998e+00 +8.5266991347380099e+00 +0.0000000000000000e+00 -3.2999999817106000e+00 -2.7265828793398193e-02 -5.2480721318116685e-01 +5.0241476739486691e-03
-3.3500000000000001e+00 +8.5266899452181004e+00 +0.0000000000000000e+00 -3.3499999808661101e+00 -2.7266763763825447e-02 -5.2482904488140880e-01 +5.0239369746551054e-03
-3.3999999999999999e+00 +8.5266806173895002e+00 +0.0000000000000000e+00 -3.3999999799960099e+00 -2.7267710329280839e-02 -5.2485112838267012e-01 +5.0237343590714230e-03
-3.4500000000000002e+00 +8.5266711512522306e+00 +0.0000000000000000e+00 -3.4499999790999101e+00 -2.7268668222868195e-02 -5.2487346172559568e-01 +5.0235398045677436e-03
-3.5000000000000000e+00 +8.5266615468026394e+00 +0.0000000000000000e+00 -3.4999999781774398e+00 -2.7269637177690893e-02 -5.2489604295085901e-01 +5.0233532885145772e-03
-3.5499999999999998e+00 +8.5266518040407409e+00 +0.0000000000000000e+00 -3.5499999772282100e+00 -2.7270616926849085e-02 -5.2491887009911253e-01 +5.0231747882823448e-03
-3.6000000000000001e+00 +8.5266419229665207e+00 +0.0000000000000000e+00 -3.5999999762518402e+00 -2.7271607203441038e-02 -5.2494194121101134e-01 +5.0230042812416126e-03
-3.6499999999999999e+00 +8.5266319035799807e+00 +0.0000000000000000e+00 -3.6499999752479400e+00 -2.7272607740562994e-02 -5.2496525432721386e-01 +5.0228417447630768e-03
-3.6999999999999900e+00 +8.5266217458847695e+00 +0.0000000000000000e+00 -3.6999999742161398e+00 -2.7273618271307809e-02 -5.2498880748835586e-01 +5.0226871562173321e-03
-3.7499999999999898e+00 +8.5266114498736005e+00 +0.0000000000000000e+00 -3.7499999731560498e+00 -2.7274638528770285e-02 -5.2501259873515205e-01 +5.0225404929757980e-03
-3.7999999999999901e+00 +8.5266010155537497e+00 +0.0000000000000000e+00 -3.7999999720672801e+00 -2.7275668246037603e-02 -5.2503662610821722e-01 +5.0224017324090693e-03
-3.8499999999999899e+00 +8.5265904429179500e+00 +0.0000000000000000e+00 -3.8499999709494599e+00 -2.7276707156200147e-02 -5.2506088764827075e-01 +5.0222708518887927e-03
-3.8999999999999901e+00 +8.5265797319771099e+00 +0.0000000000000000e+00 -3.8999999698022001e+00 -2.7277754992339219e-02 -5.2508538139590621e-01 +5.0221478287855370e-03
-3.9499999999999900e+00 +8.5265688827203103e+00 +0.0000000000000000e+00 -3.9499999686251202e+00 -2.7278811487541868e-02 -5.2511010539187197e-01 +5.0220326404713800e-03
-3.9999999999999898e+00 +8.5265578951548395e+00 +0.0000000000000000e+00 -3.9999999674178399e+00 -2.7279876374885898e-02 -5.2513505767678992e-01 +5.0219252643173189e-03
-4.0499999999999901e+00 +8.5265467692734092e+00 +0.0000000000000000e+00 -4.0499999661799704e+00 -2.7280949425302341e-02 -5.2516023617342433e-01 +5.0218256749135380e-03
-4.0999999999999899e+00 +8.5265355050833005e+00 +0.0000000000000000e+00 -4.0999999649111301e+00 -2.7282030561116933e-02 -5.2518563833259213e-01 +5.0217338357220562e-03
-4.1499999999999897e+00 +8.5265241025808791e+00 +0.0000000000000000e+00 -4.1499999636109504e+00 -2.7283119742510908e-02 -5.2521126148722430e-01 +5.0216497074238847e-03
-4.1999999999999904e+00 +8.5265125617697795e+00 +0.0000000000000000e+00 -4.1999999622790298e+00 -2.7284216929664349e-02 -5.2523710297020154e-01 +5.0215732506996994e-03
-4.2499999999999902e+00 +8.5265008826427202e+00 +0.0000000000000000e+00 -4.2499999609149901e+00 -2.7285322082762860e-02 -5.2526316011447893e-01 +5.0215044262310101e-03
-4.2999999999999901e+00 +8.5264890652069898e+00 +0.0000000000000000e+00 -4.2999999595184599e+00 -2.7286435161988257e-02 -5.2528943025290908e-01 +5.0214431946985008e-03
-4.3499999999999899e+00 +8.5264771094589396e+00 +0.0000000000000000e+00 -4.3499999580890396e+00 -2.7287556127528079e-02 -5.2531591071842076e-01 +5.0213895167836847e-03
-4.3999999999999897e+00 +8.5264650153985695e+00 +0.0000000000000000e+00 -4.3999999566263703e+00 -2.7288684939570193e-02 -5.2534259884391421e-01 +5.0213433531679534e-03
-4.4499999999999904e+00 +8.5264527830295300e+00 +0.0000000000000000e+00 -4.4499999551300400e+00 -2.7289821558302892e-02 -5.2536949196226379e-01 +5.0213046645325703e-03
-4.4999999999999902e+00 +8.5264404123481707e+00 +0.0000000000000000e+00 -4.4999999535996897e+00 -2.7290965943919009e-02 -5.2539658740639195e-01 +5.0212734115593714e-03
-4.5499999999999901e+00 +8.5264279033544899e+00 +0.0000000000000000e+00 -4.5499999520349199e+00 -2.7292118056611900e-02 -5.2542388250919414e-01 +5.0212495549300604e-03
-4.5999999999999899e+00 +8.5264152560448601e+00 +0.0000000000000000e+00 -4.5999999504353601e+00 -2.7293277856578205e-02 -5.2545137460358804e-01 +5.0212330553266694e-03
-4.6499999999999897e+00 +8.5264024704301793e+00 +0.0000000000000000e+00 -4.6499999488006196e+00 -2.7294445304011174e-02 -5.2547906102238762e-01 +5.0212238734303853e-03
-4.6999999999999904e+00 +8.5263895464995603e+00 +0.0000000000000000e+00 -4.6999999471303298e+00 -2.7295620359114217e-02 -5.2550693909855539e-01 +5.0212219699238845e-03
-4.7499999999999902e+00 +8.5263764842602505e+00 +0.0000000000000000e+00 -4.7499999454240900e+00 -2.7296802982086105e-02 -5.2553500616492477e-01 +5.0212273054887537e-03
-4.7999999999999901e+00 +8.5263632837050007e+00 +0.0000000000000000e+00 -4.7999999436815299e+00 -2.7297993133133223e-02 -5.2556325955442618e-01 +5.0212398408075992e-03
-4.8499999999999899e+00 +8.5263499448447000e+00 +0.0000000000000000e+00 -4.8499999419022597e+00 -2.7299190772457377e-02 -5.2559169659986038e-01 +5.0212595365619183e-03
-4.8999999999999897e+00 +8.5263364676684397e+00 +0.0000000000000000e+00 -4.8999999400859000e+00 -2.7300395860270818e-02 -5.2562031463417513e-01 +5.0212863534346936e-03
-4.9499999999999904e+00 +8.5263228521798702e+00 +0.0000000000000000e+00 -4.9499999382320699e+00 -2.7301608356782723e-02 -5.2564911099021372e-01 +5.0213202521080273e-03
-4.9999999999999902e+00 +8.5263090983826295e+00 +0.0000000000000000e+00 -4.9999999363403900e+00 -2.7302828222204693e-02 -5.2567808300081398e-01 +5.0213611932640829e-03
-5.0499999999999901e+00 +8.5262952059529198e+00 +0.0000000000000000e+00 -5.0499999344103799e+00 -2.7304055416872593e-02 -5.2570722800109804e-01 +5.0214091376062590e-03
-5.0999999999999899e+00 +8.5262811745706095e+00 +0.0000000000000000e+00 -5.0999999324415599e+00 -2.7305289901123526e-02 -5.2573654332615805e-01 +5.0214640458377856e-03
-5.1499999999999897e+00 +8.5262670042357094e+00 +0.0000000000000000e+00 -5.1499999304335597e+00 -2.7306531635178155e-02 -5.2576602630884595e-01 +5.0215258786412377e-03
-5.1999999999999904e+00 +8.5262526949518396e+00 +0.0000000000000000e+00 -5.1999999283859903e+00 -2.7307780579258437e-02 -5.2579567428198182e-01 +5.0215945966989983e-03
-5.2499999999999902e+00 +8.5262382467153692e+00 +0.0000000000000000e+00 -5.2499999262984600e+00 -2.7309036693591738e-02 -5.2582548457843192e-01 +5.0216701606939536e-03
-5.2999999999999901e+00 +8.5262236595299292e+00 +0.0000000000000000e+00 -5.2999999241705797e+00 -2.7310299938405471e-02 -5.2585545453100446e-01 +5.0217525313085605e-03
-5.3499999999999899e+00 +8.5262089333882596e+00 +0.0000000000000000e+00 -5.3499999220019703e+00 -2.7311570273933956e-02 -5.2588558147257836e-01 +5.0218416692259992e-03
-5.3999999999999897e+00 +8.5261940682976292e+00 +0.0000000000000000e+00 -5.3999999197922497e+00 -2.7312847660408941e-02 -5.2591586273592439e-01 +5.0219375351285428e-03
-5.4499999999999904e+00 +8.5261790642507496e+00 +0.0000000000000000e+00 -5.4499999175410201e+00 -2.7314132058070546e-02 -5.2594629565390782e-01 +5.0220400896994200e-03
-5.4999999999999902e+00 +8.5261639212585596e+00 +0.0000000000000000e+00 -5.4999999152479004e+00 -2.7315423427155153e-02 -5.2597687755926015e-01 +5.0221492936207025e-03
-5.5499999999999901e+00 +8.5261486393137602e+00 +0.0000000000000000e+00 -5.5499999129125097e+00 -2.7316721727908916e-02 -5.2600760578483219e-01 +5.0222651075756408e-03
-5.5999999999999899e+00 +8.5261332184127205e+00 +0.0000000000000000e+00 -5.5999999105344500e+00 -2.7318026920579792e-02 -5.2603847766344258e-01 +5.0223874922472635e-03
-5.6499999999999897e+00 +8.5261176585627307e+00 +0.0000000000000000e+00 -5.6499999081133403e+00 -2.7319338965414823e-02 -5.2606949052782548e-01 +5.0225164083178902e-03
-5.6999999999999904e+00 +8.5261019597637606e+00 +0.0000000000000000e+00 -5.6999999056488004e+00 -2.7320657822667020e-02 -5.2610064171075754e-01 +5.0226518164703127e-03
-5.7499999999999902e+00 +8.5260861220122006e+00 +0.0000000000000000e+00 -5.7499999031404396e+00 -2.7321983452594012e-02 -5.2613192854503299e-01 +5.0227936773875456e-03
-5.7999999999999901e+00 +8.5260701453080401e+00 +0.0000000000000000e+00 -5.7999999005878804e+00 -2.7323315815455450e-02 -5.2616334836341216e-01 +5.0229419517523587e-03
-5.8499999999999899e+00 +8.5260540296512808e+00 +0.0000000000000000e+00 -5.8499998979907204e+00 -2.7324654871514375e-02 -5.2619489849864631e-01 +5.0230966002475065e-03
