# field on trajectory
# s[mm] rx[mm] ry[mm] rz[mm] bx[T] by[T] bz[T]
-0.0000000000000000e+00 +8.5269999999999904e+00 +0.0000000000000000e+00 -0.0000000000000000e+00 -2.9968790304901117e-02 -5.5096508573080782e-01 +5.5892502199990082e-03
-5.0000000000000003e-02 +8.5269999309457507e+00 +0.0000000000000000e+00 -4.9999999999936401e-02 -2.9968767880718866e-02 -5.5096516190776923e-01 +5.5871901074654980e-03
-1.0000000000000001e-01 +8.5269997237883199e+00 +0.0000000000000000e+00 -9.9999999999491399e-02 -2.9968764228417627e-02 -5.5096561592849602e-01 +5.5851353976498928e-03
-1.4999999999999999e-01 +8.5269993785295792e+00 +0.0000000000000000e+00 -1.4999999999828301e-01 -2.9968779278110969e-02 -5.5096644705321063e-01 +5.5830861753541870e-03
-2.0000000000000001e-01 +8.5269988951622508e+00 +0.0000000000000000e+00 -1.9999999999593099e-01 -2.9968812959916019e-02 -5.5096765454221741e-01 +5.5810425253813500e-03
-2.5000000000000000e-01 +8.5269982736936107e+00 +0.0000000000000000e+00 -2.4999999999205300e-01 -2.9968865203945278e-02 -5.5096923765573314e-01 +5.5790045325335895e-03
-2.9999999999999999e-01 +8.5269975141200103e+00 +0.0000000000000000e+00 -2.9999999998626797e-01 -2.9968935940315553e-02 -5.5097119565407038e-01 +5.5769722816142349e-03
-3.4999999999999998e-01 +8.5269966164378292e+00 +0.0000000000000000e+00 -3.4999999997819298e-01 -2.9969025099144179e-02 -5.5097352779755882e-01 +5.5749458574269311e-03
-4.0000000000000002e-01 +8.5269955806543294e+00 +0.0000000000000000e+00 -3.9999999996744900e-01 -2.9969132610545308e-02 -5.5097623334646539e-01 +5.5729253447748626e-03
-4.5000000000000001e-01 +8.5269944067658798e+00 +0.0000000000000000e+00 -4.4999999995365297e-01 -2.9969258404637565e-02 -5.5097931156115276e-01 +5.5709108284623440e-03
-5.0000000000000000e-01 +8.5269930947724806e+00 +0.0000000000000000e+00 -4.9999999993642402e-01 -2.9969402411539014e-02 -5.5098276170197391e-01 +5.5689023932937775e-03
-5.5000000000000004e-01 +8.5269916446777607e+00 +0.0000000000000000e+00 -5.4999999991537996e-01 -2.9969564561367262e-02 -5.5098658302927184e-01 +5.5669001240736477e-03
-5.9999999999999998e-01 +8.5269900564744603e+00 +0.0000000000000000e+00 -5.9999999989013997e-01 -2.9969744784244513e-02 -5.5099077480348424e-01 +5.5649041056075920e-03
-6.5000000000000002e-01 +8.5269883301661995e+00 +0.0000000000000000e+00 -6.4999999986032297e-01 -2.9969943010290108e-02 -5.5099533628498742e-01 +5.5629144227008331e-03
-6.9999999999999996e-01 +8.5269864657566394e+00 +0.0000000000000000e+00 -6.9999999982554695e-01 -2.9970159169624293e-02 -5.5100026673417235e-01 +5.5609311601589545e-03
-7.5000000000000000e-01 +8.5269844632421208e+00 +0.0000000000000000e+00 -7.4999999978543097e-01 -2.9970393192370885e-02 -5.5100556541149937e-01 +5.5589544027884619e-03
-8.0000000000000004e-01 +8.5269823226226400e+00 +0.0000000000000000e+00 -7.9999999973959202e-01 -2.9970645008653523e-02 -5.5101123157741916e-01 +5.5569842353959892e-03
-8.4999999999999998e-01 +8.5269800438982202e+00 +0.0000000000000000e+00 -8.4999999968765005e-01 -2.9970914548596895e-02 -5.5101726449239596e-01 +5.5550207427885537e-03
-9.0000000000000002e-01 +8.5269776270688507e+00 +0.0000000000000000e+00 -8.9999999962922395e-01 -2.9971201742326925e-02 -5.5102366341691200e-01 +5.5530640097735890e-03
-9.4999999999999996e-01 +8.5269750721381605e+00 +0.0000000000000000e+00 -9.4999999956393100e-01 -2.9971506519969496e-02 -5.5103042761143806e-01 +5.5511141211586805e-03
-1.0000000000000000e+00 +8.5269723790988792e+00 +0.0000000000000000e+00 -9.9999999949139096e-01 -2.9971828811655592e-02 -5.5103755633653906e-01 +5.5491711617526134e-03
-1.0500000000000000e+00 +8.5269695479546499e+00 +0.0000000000000000e+00 -1.0499999994112199e+00 -2.9972168547513740e-02 -5.5104504885271643e-01 +5.5472352163638185e-03
-1.1000000000000001e+00 +8.5269665787091107e+00 +0.0000000000000000e+00 -1.0999999993230400e+00 -2.9972525657673853e-02 -5.5105290442048760e-01 +5.5453063698011583e-03
-1.1499999999999999e+00 +8.5269634713586093e+00 +0.0000000000000000e+00 -1.1499999992264700e+00 -2.9972900072269867e-02 -5.5106112230043702e-01 +5.5433847068744610e-03
-1.2000000000000000e+00 +8.5269602259031707e+00 +0.0000000000000000e+00 -1.1999999991211201e+00 -2.9973291721435976e-02 -5.5106970175313830e-01 +5.5414703123937495e-03
-1.2500000000000000e+00 +8.5269568423427700e+00 +0.0000000000000000e+00 -1.2499999990066200e+00 -2.9973700535307939e-02 -5.5107864203918022e-01 +5.5395632711694957e-03
-1.3000000000000000e+00 +8.5269533206774195e+00 +0.0000000000000000e+00 -1.2999999988825901e+00 -2.9974126444023155e-02 -5.5108794241916614e-01 +5.5376636680126408e-03
-1.3500000000000001e+00 +8.5269496609071194e+00 +0.0000000000000000e+00 -1.3499999987486300e+00 -2.9974569377720743e-02 -5.5109760215371484e-01 +5.5357715877345929e-03
-1.3999999999999999e+00 +8.5269458630355093e+00 +0.0000000000000000e+00 -1.3999999986043801e+00 -2.9975029266540231e-02 -5.5110762050343276e-01 +5.5338871151469808e-03
-1.4500000000000000e+00 +8.5269419270553009e+00 +0.0000000000000000e+00 -1.4499999984494401e+00 -2.9975506040626869e-02 -5.5111799672902084e-01 +5.5320103350627097e-03
-1.5000000000000000e+00 +8.5269378529737896e+00 +0.0000000000000000e+00 -1.4999999982834400e+00 -2.9975999630122586e-02 -5.5112873009108776e-01 +5.5301413322941216e-03
-1.5500000000000000e+00 +8.5269336407873197e+00 +0.0000000000000000e+00 -1.5499999981060000e+00 -2.9976509965175105e-02 -5.5113981985033778e-01 +5.5282801916548552e-03
-1.6000000000000001e+00 +8.5269292904959002e+00 +0.0000000000000000e+00 -1.5999999979167401e+00 -2.9977036975932868e-02 -5.5115126526746128e-01 +5.5264269979587877e-03
-1.6499999999999999e+00 +8.5269248020995292e+00 +0.0000000000000000e+00 -1.6499999977152600e+00 -2.9977580592546304e-02 -5.5116306560316342e-01 +5.5245818360203204e-03
-1.7000000000000000e+00 +8.5269201755982102e+00 +0.0000000000000000e+00 -1.6999999975011999e+00 -2.9978140745167969e-02 -5.5117522011816422e-01 +5.5227447906543766e-03
-1.7500000000000000e+00 +8.5269154109919292e+00 +0.0000000000000000e+00 -1.7499999972741700e+00 -2.9978717363952558e-02 -5.5118772807319694e-01 +5.5209159466764043e-03
-1.8000000000000000e+00 +8.5269105082843506e+00 +0.0000000000000000e+00 -1.7999999970337901e+00 -2.9979310379055692e-02 -5.5120058872898225e-01 +5.5190953889021370e-03
-1.8500000000000001e+00 +8.5269054674718099e+00 +0.0000000000000000e+00 -1.8499999967796801e+00 -2.9979919720637849e-02 -5.5121380134630893e-01 +5.5172832021483740e-03
-1.8999999999999999e+00 +8.5269002885506797e+00 +0.0000000000000000e+00 -1.8999999965114500e+00 -2.9980545318861743e-02 -5.5122736518597715e-01 +5.5154794712324621e-03
-1.9500000000000000e+00 +8.5268949715282396e+00 +0.0000000000000000e+00 -1.9499999962287300e+00 -2.9981187103888737e-02 -5.5124127950872370e-01 +5.5136842809715382e-03
-2.0000000000000000e+00 +8.5268895164008391e+00 +0.0000000000000000e+00 -1.9999999959311201e+00 -2.9981845005886392e-02 -5.5125554357537676e-01 +5.5118977161840790e-03
-2.0499999999999998e+00 +8.5268839230666291e+00 +0.0000000000000000e+00 -2.0499999956182600e+00 -2.9982518930432280e-02 -5.5127015643890365e-01 +5.5101198537544924e-03
-2.1000000000000001e+00 +8.5268781914164702e+00 +0.0000000000000000e+00 -2.0999999952897199e+00 -2.9983208684600832e-02 -5.5128511631799337e-01 +5.5083507388019133e-03
-2.1499999999999999e+00 +8.5268723214576294e+00 +0.0000000000000000e+00 -2.1499999949451398e+00 -2.9983914050799271e-02 -5.5130042122191736e-01 +5.5065904084961896e-03
-2.2000000000000002e+00 +8.5268663131864706e+00 +0.0000000000000000e+00 -2.1999999945841302e+00 -2.9984634811438947e-02 -5.5131606916003784e-01 +5.5048389000084581e-03
-2.2500000000000000e+00 +8.5268601666030008e+00 +0.0000000000000000e+00 -2.2499999942063100e+00 -2.9985370748930075e-02 -5.5133205814170194e-01 +5.5030962505101264e-03
-2.2999999999999998e+00 +8.5268538817035697e+00 +0.0000000000000000e+00 -2.2999999938113000e+00 -2.9986121645684261e-02 -5.5134838617629456e-01 +5.5013624971733833e-03
-2.3500000000000001e+00 +8.5268474584954692e+00 +0.0000000000000000e+00 -2.3499999933987001e+00 -2.9986887284109320e-02 -5.5136505127313185e-01 +5.4996376771701879e-03
-2.3999999999999999e+00 +8.5268408969750507e+00 +0.0000000000000000e+00 -2.3999999929681501e+00 -2.9987667446616788e-02 -5.5138205144162122e-01 +5.4979218276737978e-03
-2.4500000000000002e+00 +8.5268341971459396e+00 +0.0000000000000000e+00 -2.4499999925192602e+00 -2.9988461915615602e-02 -5.5139938469112693e-01 +5.4962149858575051e-03
-2.5000000000000000e+00 +8.5268273590008903e+00 +0.0000000000000000e+00 -2.4999999920516398e+00 -2.9989270473518233e-02 -5.5141704903110311e-01 +5.4945171888958998e-03
-2.5499999999999998e+00 +8.5268203825435194e+00 +0.0000000000000000e+00 -2.5499999915649201e+00 -2.9990092902733089e-02 -5.5143504247093500e-01 +5.4928284739633555e-03
-2.6000000000000001e+00 +8.5268132677774702e+00 +0.0000000000000000e+00 -2.5999999910586999e+00 -2.9990928985668193e-02 -5.5145336302001813e-01 +5.4911488782347995e-03
-2.6499999999999999e+00 +8.5268060146954703e+00 +0.0000000000000000e+00 -2.6499999905326099e+00 -2.9991778504734976e-02 -5.5147200868783719e-01 +5.4894784388864705e-03
-2.7000000000000002e+00 +8.5267986233047797e+00 +0.0000000000000000e+00 -2.6999999899862699e+00 -2.9992641242339212e-02 -5.5149097748378040e-01 +5.4878171930941386e-03
-2.7500000000000000e+00 +8.5267910936017905e+00 +0.0000000000000000e+00 -2.7499999894192899e+00 -2.9993516980889957e-02 -5.5151026741732501e-01 +5.4861651780349031e-03
-2.7999999999999998e+00 +8.5267834255828294e+00 +0.0000000000000000e+00 -2.7999999888312899e+00 -2.9994405502795567e-02 -5.5152987649795882e-01 +5.4845224308864250e-03
-2.8500000000000001e+00 +8.5267756192552007e+00 +0.0000000000000000e+00 -2.8499999882218900e+00 -2.9995306590459812e-02 -5.5154980273509746e-01 +5.4828889888261546e-03
-2.8999999999999999e+00 +8.5267676746152592e+00 +0.0000000000000000e+00 -2.8999999875907001e+00 -2.9996220026289488e-02 -5.5157004413824573e-01 +5.4812648890328851e-03
-2.9500000000000002e+00 +8.5267595916629908e+00 +0.0000000000000000e+00 -2.9499999869373399e+00 -2.9997145592689210e-02 -5.5159059871689187e-01 +5.4796501686857251e-03
-3.0000000000000000e+00 +8.5267513703984203e+00 +0.0000000000000000e+00 -2.9999999862614302e+00 -2.9998083072062601e-02 -5.5161146448053089e-01 +5.4780448649643489e-03
-3.0499999999999998e+00 +8.5267430108251592e+00 +0.0000000000000000e+00 -3.0499999855625899e+00 -2.9999032246810959e-02 -5.5163263943864072e-01 +5.4764490150487621e-03
-3.1000000000000001e+00 +8.5267345129359509e+00 +0.0000000000000000e+00 -3.0999999848404300e+00 -2.9999992899338267e-02 -5.5165412160078697e-01 +5.4748626561203061e-03
-3.1499999999999999e+00 +8.5267258767344192e+00 +0.0000000000000000e+00 -3.1499999840945798e+00 -3.0000964812043489e-02 -5.5167590897646357e-01 +5.4732858253601479e-03
-3.2000000000000002e+00 +8.5267171022205694e+00 +0.0000000000000000e+00 -3.1999999833246400e+00 -3.0001947767325562e-02 -5.5169799957519905e-01 +5.4717185599502975e-03
-3.2500000000000000e+00 +8.5267081893980503e+00 +0.0000000000000000e+00 -3.2499999825302401e+00 -3.0002941547580791e-02 -5.5172039140650286e-01 +5.4701608970730937e-03
-3.2999999999999998e+00 +8.5266991382632096e+00 +0.0000000000000000e+00 -3.2999999817109900e+00 -3.0003945935206593e-02 -5.5174308247994508e-01 +5.4686128739119856e-03
-3.3500000000000001e+00 +8.5266899488124199e+00 +0.0000000000000000e+00 -3.3499999808665200e+00 -3.0004960712598856e-02 -5.5176607080510298e-01 +5.4670745276510025e-03
-3.3999999999999999e+00 +8.5266806210529502e+00 +0.0000000000000000e+00 -3.3999999799964300e+00 -3.0005985662148061e-02 -5.5178935439148169e-01 +5.4655458954740322e-03
-3.4500000000000002e+00 +8.5266711549811607e+00 +0.0000000000000000e+00 -3.4499999791003502e+00 -3.0007020566246823e-02 -5.5181293124867237e-01 +5.4640270145663158e-03
-3.5000000000000000e+00 +8.5266615505970496e+00 +0.0000000000000000e+00 -3.4999999781778901e+00 -3.0008065207284752e-02 -5.5183679938624686e-01 +5.4625179221134447e-03
-3.5499999999999998e+00 +8.5266518079006293e+00 +0.0000000000000000e+00 -3.5499999772286701e+00 -3.0009119367649616e-02 -5.5186095681378267e-01 +5.4610186553016183e-03
-3.6000000000000001e+00 +8.5266419268882601e+00 +0.0000000000000000e+00 -3.5999999762523198e+00 -3.0010182829728577e-02 -5.5188540154089161e-01 +5.4595292513179077e-03
-3.6499999999999999e+00 +8.5266319075708505e+00 +0.0000000000000000e+00 -3.6499999752484298e+00 -3.0011255375901682e-02 -5.5191013157708424e-01 +5.4580497473489895e-03
-3.6999999999999900e+00 +8.5266217499374797e+00 +0.0000000000000000e+00 -3.6999999742166398e+00 -3.0012336788554608e-02 -5.5193514493203699e-01 +5.4565801805836669e-03
-3.7499999999999898e+00 +8.5266114539917908e+00 +0.0000000000000000e+00 -3.7499999731565601e+00 -3.0013426850065781e-02 -5.5196043961532615e-01 +5.4551205882103606e-03
-3.7999999999999901e+00 +8.5266010197374307e+00 +0.0000000000000000e+00 -3.7999999720678099e+00 -3.0014525342811398e-02 -5.5198601363653244e-01 +5.4536710074181132e-03
-3.8499999999999899e+00 +8.5265904471671092e+00 +0.0000000000000000e+00 -3.8499999709499999e+00 -3.0015632049169225e-02 -5.5201186500532284e-01 +5.4522314753973527e-03
-3.8999999999999901e+00 +8.5265797362881095e+00 +0.0000000000000000e+00 -3.8999999698027499e+00 -3.0016746751509560e-02 -5.5203799173126333e-01 +5.4508020293381389e-03
-3.9499999999999900e+00 +8.5265688870931609e+00 +0.0000000000000000e+00 -3.9499999686256899e+00 -3.0017869232205334e-02 -5.5206439182403022e-01 +5.4493827064321532e-03
-3.9999999999999898e+00 +8.5265578995895304e+00 +0.0000000000000000e+00 -3.9999999674184199e+00 -3.0018999273621869e-02 -5.5209106329319924e-01 +5.4479735438707341e-03
-4.0499999999999901e+00 +8.5265467737735907e+00 +0.0000000000000000e+00 -4.0499999661805601e+00 -3.0020136694434530e-02 -5.5211800401058986e-01 +5.4465745772871469e-03
-4.0999999999999899e+00 +8.5265355096416897e+00 +0.0000000000000000e+00 -4.0999999649117402e+00 -3.0021281458552689e-02 -5.5214521129666250e-01 +5.4451858360774390e-03
-4.1499999999999897e+00 +8.5265241072047502e+00 +0.0000000000000000e+00 -4.1499999636115703e+00 -3.0022433566189881e-02 -5.5217268233393180e-01 +5.4438073480776996e-03
-4.1999999999999904e+00 +8.5265125664518600e+00 +0.0000000000000000e+00 -4.1999999622796604e+00 -3.0023593017568059e-02 -5.5220041430507405e-01 +5.4424391411259602e-03
-4.2499999999999902e+00 +8.5265008873866499e+00 +0.0000000000000000e+00 -4.2499999609156403e+00 -3.0024759812904735e-02 -5.5222840439265952e-01 +5.4410812430597377e-03
-4.2999999999999901e+00 +8.5264890700091200e+00 +0.0000000000000000e+00 -4.2999999595191198e+00 -3.0025933952419443e-02 -5.5225664977928679e-01 +5.4397336817172516e-03
-4.3499999999999899e+00 +8.5264771143192792e+00 +0.0000000000000000e+00 -4.3499999580897200e+00 -3.0027115436332491e-02 -5.5228514764755465e-01 +5.4383964849371857e-03
-4.3999999999999897e+00 +8.5264650203207601e+00 +0.0000000000000000e+00 -4.3999999566270596e+00 -3.0028304264863727e-02 -5.5231389518003604e-01 +5.4370696805584309e-03
-4.4499999999999904e+00 +8.5264527880062797e+00 +0.0000000000000000e+00 -4.4499999551307496e+00 -3.0029500438237607e-02 -5.5234288955938338e-01 +5.4357532964210793e-03
-4.4999999999999902e+00 +8.5264404173794901e+00 +0.0000000000000000e+00 -4.4999999536004101e+00 -3.0030703956675630e-02 -5.5237212796816981e-01 +5.4344473603649360e-03
-4.5499999999999901e+00 +8.5264279084440204e+00 +0.0000000000000000e+00 -4.5499999520356598e+00 -3.0031914820400143e-02 -5.5240160758896706e-01 +5.4331519002302504e-03
-4.5999999999999899e+00 +8.5264152611962292e+00 +0.0000000000000000e+00 -4.5999999504361098e+00 -3.0033133029636980e-02 -5.5243132560440078e-01 +5.4318669438582247e-03
-4.6499999999999897e+00 +8.5264024756361305e+00 +0.0000000000000000e+00 -4.6499999488013897e+00 -3.0034358584611575e-02 -5.5246127919706789e-01 +5.4305925190902523e-03
-4.6999999999999904e+00 +8.5263895517600794e+00 +0.0000000000000000e+00 -4.6999999471311096e+00 -3.0035591485551648e-02 -5.5249146554959117e-01 +5.4293286537684237e-03
-4.7499999999999902e+00 +8.5263764895753393e+00 +0.0000000000000000e+00 -4.7499999454248902e+00 -3.0036831732682005e-02 -5.5252188184451256e-01 +5.4280753757345286e-03
-4.7999999999999901e+00 +8.5263632890782901e+00 +0.0000000000000000e+00 -4.7999999436823400e+00 -3.0038079326232325e-02 -5.5255252526445142e-01 +5.4268327128315407e-03
-4.8499999999999899e+00 +8.5263499502725608e+00 +0.0000000000000000e+00 -4.8499999419030901e+00 -3.0039334266430750e-02 -5.5258339299197201e-01 +5.4256006929023787e-03
-4.8999999999999897e+00 +8.5263364731472393e+00 +0.0000000000000000e+00 -4.8999999400867402e+00 -3.0040596553511611e-02 -5.5261448220974341e-01 +5.4243793437913791e-03
-4.9499999999999904e+00 +8.5263228577168793e+00 +0.0000000000000000e+00 -4.9499999382329296e+00 -3.0041866187701320e-02 -5.5264579010024550e-01 +5.4231686933415907e-03
-4.9999999999999902e+00 +8.5263091039705596e+00 +0.0000000000000000e+00 -4.9999999363412497e+00 -3.0043143169236421e-02 -5.5267731384614116e-01 +5.4219687693982180e-03
-5.0499999999999901e+00 +8.5262952115954196e+00 +0.0000000000000000e+00 -5.0499999344112600e+00 -3.0044427498461465e-02 -5.5270905063230047e-01 +5.4207795998272666e-03
-5.0999999999999899e+00 +8.5262811802713294e+00 +0.0000000000000000e+00 -5.0999999324424596e+00 -3.0045719175724860e-02 -5.5274099764364493e-01 +5.4196012124956309e-03
-5.1499999999999897e+00 +8.5262670100019005e+00 +0.0000000000000000e+00 -5.1499999304344799e+00 -3.0047018201261599e-02 -5.5277315206272482e-01 +5.4184336352487454e-03
-5.1999999999999904e+00 +8.5262527007798798e+00 +0.0000000000000000e+00 -5.1999999283869203e+00 -3.0048324575311751e-02 -5.5280551107216613e-01 +5.4172768959332178e-03
-5.2499999999999902e+00 +8.5262382526088896e+00 +0.0000000000000000e+00 -5.2499999262994104e+00 -3.0049638298112788e-02 -5.5283807185451117e-01 +5.4161310223953298e-03
-5.2999999999999901e+00 +8.5262236654925800e+00 +0.0000000000000000e+00 -5.2999999241715603e+00 -3.0050959369903436e-02 -5.5287083159229766e-01 +5.4149960424817994e-03
-5.3499999999999899e+00 +8.5262089394273097e+00 +0.0000000000000000e+00 -5.3499999220029704e+00 -3.0052287790926266e-02 -5.5290378746811208e-01 +5.4138719840402380e-03
-5.3999999999999897e+00 +8.5261940744130698e+00 +0.0000000000000000e+00 -5.3999999197932702e+00 -3.0053623561423923e-02 -5.5293693666450972e-01 +5.4127588749184399e-03
-5.4499999999999904e+00 +8.5261790704498708e+00 +0.0000000000000000e+00 -5.4499999175420601e+00 -3.0054966681640389e-02 -5.5297027636404050e-01 +5.4116567429646090e-03
-5.4999999999999902e+00 +8.5261639275377092e+00 +0.0000000000000000e+00 -5.4999999152489698e+00 -3.0056317151820992e-02 -5.5300380374924885e-01 +5.4105656160273593e-03
-5.5499999999999901e+00 +8.5261486456802196e+00 +0.0000000000000000e+00 -5.5499999129136004e+00 -3.0057674972211207e-02 -5.5303751600264639e-01 +5.4094855219554740e-03
-5.5999999999999899e+00 +8.5261332248737691e+00 +0.0000000000000000e+00 -5.5999999105355700e+00 -3.0059040143060486e-02 -5.5307141030679330e-01 +5.4084164885986269e-03
-5.6499999999999897e+00 +8.5261176651147306e+00 +0.0000000000000000e+00 -5.6499999081144896e+00 -3.0060412664619757e-02 -5.5310548384424285e-01 +5.4073585438069076e-03
-5.6999999999999904e+00 +8.5261019664103497e+00 +0.0000000000000000e+00 -5.6999999056499897e+00 -3.0061792537137554e-02 -5.5313973379746195e-01 +5.4063117154300637e-03
-5.7499999999999902e+00 +8.5260861287570204e+00 +0.0000000000000000e+00 -5.7499999031416600e+00 -3.0063179760867760e-02 -5.5317415734899067e-01 +5.4052760313189853e-03
-5.7999999999999901e+00 +8.5260701521547198e+00 +0.0000000000000000e+00 -5.7999999005891203e+00 -3.0064574336064548e-02 -5.5320875168133510e-01 +5.4042515193247122e-03
-5.8499999999999899e+00 +8.5260540366070892e+00 +0.0000000000000000e+00 -5.8499998979920003e+00 -3.0065976262982314e-02 -5.5324351397696869e-01 +5.4032382072984391e-03
