# multipoles
# s[mm] polynom_b[n=0][T/m^n] polynom_b[n=1][T/m^n] polynom_b[n=2][T/m^n] polynom_b[n=3][T/m^n] polynom_b[n=4][T/m^n] polynom_b[n=5][T/m^n] polynom_b[n=6][T/m^n] 
-0.0000000000000000e+00 -5.2258943329858965e-01 +6.8495549985758313e+00 +6.0501698861043129e+00 -1.9981835021533925e+02 -3.6167160005201017e+03 +1.0863470912950542e+06 +5.1474488615806801e+06 
-5.0000000000000003e-02 -5.2259133747885234e-01 +6.8495880469204575e+00 +6.0494355639949280e+00 -1.9994770753723668e+02 -3.6071821063429798e+03 +1.0864922440426536e+06 +5.1396182990033720e+06 
-1.0000000000000001e-01 -5.2259364330983193e-01 +6.8496435372458864e+00 +6.0482065141806034e+00 -2.0009216929889348e+02 -3.5984689540648264e+03 +1.0867703419037559e+06 +5.1383314651920628e+06 
-1.4999999999999999e-01 -5.2259635001753868e-01 +6.8497213655035996e+00 +6.0464879651932257e+00 -2.0025050242835886e+02 -3.5906090942106480e+03 +1.0871734564764537e+06 +5.1436760303129163e+06 
-2.0000000000000001e-01 -5.2259945682791076e-01 +6.8498214276465914e+00 +6.0442851442498187e+00 -2.0042147388289231e+02 -3.5836350399633557e+03 +1.0876936596329268e+06 +5.1557394057220658e+06 
-2.5000000000000000e-01 -5.2260296296700481e-01 +6.8499436196293182e+00 +6.0416032785829517e+00 -2.0060385064405398e+02 -3.5775793022629264e+03 +1.0883230234197464e+06 +5.1746089747420987e+06 
-2.9999999999999999e-01 -5.2260686766084552e-01 +6.8500878374040752e+00 +6.0384476000515264e+00 -2.0079639956313841e+02 -3.5724745236420845e+03 +1.0890536188009456e+06 +5.2003730364518398e+06 
-3.4999999999999998e-01 -5.2261117013547831e-01 +6.8502539769286512e+00 +6.0348233359420922e+00 -2.0099788769133289e+02 -3.5683532160457412e+03 +1.0898775184228837e+06 +5.2331189750094628e+06 
-4.0000000000000002e-01 -5.2261586961696416e-01 +6.8504419341583578e+00 +6.0307357133167852e+00 -2.0120708193047989e+02 -3.5652478904012032e+03 +1.0907867936455421e+06 +5.2729341891300064e+06 
-4.5000000000000001e-01 -5.2262096533143065e-01 +6.8506516050504356e+00 +6.0261899631508635e+00 -2.0142274923486764e+02 -3.5631911602097039e+03 +1.0917735162918805e+06 +5.3199067548210258e+06 
-5.0000000000000000e-01 -5.2262645650494366e-01 +6.8508828855622772e+00 +6.0211913113743503e+00 -2.0164365652748197e+02 -3.5622155061596291e+03 +1.0928297579240403e+06 +5.3741238624868169e+06 
-5.5000000000000004e-01 -5.2263234236362066e-01 +6.8511356716522362e+00 +6.0157449892135206e+00 -2.0186857073336859e+02 -3.5623535488534021e+03 +1.0939475901041366e+06 +5.4356736371448021e+06 
-5.9999999999999998e-01 -5.2263862213364443e-01 +6.8514098592809489e+00 +6.0098562235500514e+00 -2.0209625884820994e+02 -3.5636377938059713e+03 +1.0951190850027564e+06 +5.5046434302294552e+06 
-6.5000000000000002e-01 -5.2264529504115964e-01 +6.8517053444068292e+00 +6.0035302442561482e+00 -2.0232548772639166e+02 -3.5661008278417698e+03 +1.0963363135834832e+06 +5.5811211448286884e+06 
-6.9999999999999996e-01 -5.2265236031236628e-01 +6.8520220229912256e+00 +5.9967722791183569e+00 -2.0255502432722182e+02 -3.5697751825127252e+03 +1.0975913477234417e+06 +5.6651943142832061e+06 
-7.5000000000000000e-01 -5.2265981717340892e-01 +6.8523597909947140e+00 +5.9895875561499752e+00 -2.0278363553228414e+02 -3.5746933935058860e+03 +1.0988762586404583e+06 +5.7569504865980465e+06 
-8.0000000000000004e-01 -5.2266766485055671e-01 +6.8527185443808634e+00 +5.9819813045338339e+00 -2.0301008832416036e+02 -3.5808880313391087e+03 +1.1001831183848213e+06 +5.8564774611106291e+06 
-8.4999999999999998e-01 -5.2267590257002483e-01 +6.8530981791122656e+00 +5.9739587541428456e+00 -2.0323314960461616e+02 -3.5883916843560191e+03 +1.1015039983479641e+06 +5.9638631496065492e+06 
-9.0000000000000002e-01 -5.2268452955804245e-01 +6.8534985911514346e+00 +5.9655251298397847e+00 -2.0345158624813550e+02 -3.5972368081902673e+03 +1.1028309697018506e+06 +6.0791945777286515e+06 
-9.4999999999999996e-01 -5.2269354504091681e-01 +6.8539196764621559e+00 +5.9566856627104299e+00 -2.0366416514636174e+02 -3.6074560257471380e+03 +1.1041561037643619e+06 +6.2025598954974869e+06 
-1.0000000000000000e+00 -5.2270294824488306e-01 +6.8543613310103950e+00 +5.9474455811977052e+00 -2.0386965325151789e+02 -3.6190818892383190e+03 +1.1054714723601290e+06 +6.3340467782375412e+06 
-1.0500000000000000e+00 -5.2271273839625843e-01 +6.8548234507599162e+00 +5.9378101121209923e+00 -2.0406681739362324e+02 -3.6321469090798619e+03 +1.1067691463056658e+06 +6.4737426232203292e+06 
-1.1000000000000001e+00 -5.2272291472138654e-01 +6.8553059316772007e+00 +5.9277844838534657e+00 -2.0425442448951341e+02 -3.6466836372901116e+03 +1.1080411971499273e+06 +6.6217351069356035e+06 
-1.1499999999999999e+00 -5.2273347644657664e-01 +6.8558086697305320e+00 +5.9173739248400192e+00 -2.0443124149541728e+02 -3.6627246333044732e+03 +1.1092796967655241e+06 +6.7781119768961463e+06 
-1.2000000000000000e+00 -5.2274442279818045e-01 +6.8563315608834960e+00 +5.9065836631644091e+00 -2.0459603515136317e+02 -3.6803024415102664e+03 +1.1104767152700659e+06 +6.9429608545805756e+06 
-1.2500000000000000e+00 -5.2275575300255939e-01 +6.8568745011054899e+00 +5.8954189259355463e+00 -2.0474757239843430e+02 -3.6994495855733039e+03 +1.1116243244092588e+06 +7.1163692438887553e+06 
-1.3000000000000000e+00 -5.2276746628612381e-01 +6.8574373863646736e+00 +5.8838849415231653e+00 -2.0488462011494590e+02 -3.7201986240957317e+03 +1.1127145954742203e+06 +7.2984248865100360e+06 
-1.3500000000000001e+00 -5.2277956187522190e-01 +6.8580201126290374e+00 +5.8719869378345244e+00 -2.0500594512476931e+02 -3.7425821049111169e+03 +1.1137395992674527e+06 +7.4892154552461533e+06 
-1.3999999999999999e+00 -5.2279203899631244e-01 +6.8586225758679076e+00 +5.8597301414396528e+00 -2.0511031429611472e+02 -3.7666325385223322e+03 +1.1146914069990641e+06 +7.6888283646580549e+06 
-1.4500000000000000e+00 -5.2280489687580090e-01 +6.8592446720508047e+00 +5.8471197799389918e+00 -2.0519649447092112e+02 -3.7923824671695161e+03 +1.1155620896675407e+06 +7.8973512601770442e+06 
-1.5000000000000000e+00 -5.2281813474013228e-01 +6.8598862971460921e+00 +5.8341610807351900e+00 -2.0526325241837836e+02 -3.8198644283476160e+03 +1.1163437176844422e+06 +8.1148717532605482e+06 
-1.5500000000000000e+00 -5.2283175181576513e-01 +6.8605473471280964e+00 +5.8208592708155962e+00 -2.0530935513183906e+02 -3.8491109503538173e+03 +1.1170283633313011e+06 +8.3414774001857424e+06 
-1.6000000000000001e+00 -5.2284574732920208e-01 +6.8612277179633905e+00 +5.8072195779792501e+00 -2.0533356925219738e+02 -3.8801545887098860e+03 +1.1176080959743685e+06 +8.5772559608405605e+06 
-1.6499999999999999e+00 -5.2286012050687869e-01 +6.8619273056252519e+00 +5.7932472280848248e+00 -2.0533466167277223e+02 -3.9130278419046490e+03 +1.1180749870896006e+06 +8.8222947897566594e+06 
-1.7000000000000000e+00 -5.2287487057534221e-01 +6.8626460060851135e+00 +5.7789474466587913e+00 -2.0531139919290484e+02 -3.9477632053514212e+03 +1.1184211073994739e+06 +9.0766812427415475e+06 
-1.7500000000000000e+00 -5.2288999676112091e-01 +6.8633837153157025e+00 +5.7643254618461093e+00 -2.0526254864216560e+02 -3.9843932463301139e+03 +1.1186385279050916e+06 +9.3405031647814531e+06 
-1.8000000000000000e+00 -5.2290549829069288e-01 +6.8641403292878174e+00 +5.7493864993485237e+00 -2.0518687672901072e+02 -4.0229504692498899e+03 +1.1187193185741657e+06 +9.6138479834490325e+06 
-1.8500000000000001e+00 -5.2292137439063124e-01 +6.8649157439745983e+00 +5.7341357850847663e+00 -2.0508315026066344e+02 -4.0634673842022794e+03 +1.1186555502772557e+06 +9.8968031675475407e+06 
-1.8999999999999999e+00 -5.2293762428751778e-01 +6.8657098553505822e+00 +5.7185785442059798e+00 -2.0495013605860882e+02 -4.1059764837462117e+03 +1.1184392939509845e+06 +1.0189456075643998e+07 
-1.9500000000000000e+00 -5.2295424720788153e-01 +6.8665225593878549e+00 +5.7027200034884755e+00 -2.0478660083201513e+02 -4.1505103108224448e+03 +1.1180626196942595e+06 +1.0491894430825613e+07 
-2.0000000000000000e+00 -5.2297109653162277e-01 +6.8673466253546227e+00 +5.6867027711460612e+00 -2.0459339824270759e+02 -4.1966769321727534e+03 +1.1175246084258908e+06 +1.0801409528710028e+07 
-2.0499999999999998e+00 -5.2298830951791997e-01 +6.8681887364806808e+00 +5.6703948028685032e+00 -2.0436953897307305e+02 -4.2447659616660903e+03 +1.1168232598333680e+06 +1.1120033831074515e+07 
-2.1000000000000001e+00 -5.2300588386040214e-01 +6.8690487581578799e+00 +5.6537965166403081e+00 -2.0411558658710774e+02 -4.2946736772424365e+03 +1.1159607051439106e+06 +1.1447150397596633e+07 
-2.1499999999999999e+00 -5.2302381725270641e-01 +6.8699265557792346e+00 +5.6369083342892505e+00 -2.0383210467112309e+02 -4.3462964592461258e+03 +1.1149390757285268e+06 +1.1782142972215321e+07 
-2.2000000000000002e+00 -5.2304210738850287e-01 +6.8708219947368923e+00 +5.6197306774446920e+00 -2.0351965676593008e+02 -4.3995306915442115e+03 +1.1137605026048524e+06 +1.2124395362488138e+07 
-2.2500000000000000e+00 -5.2306075196150192e-01 +6.8717349404255659e+00 +5.6022639673499377e+00 -2.0317880650322178e+02 -4.4542727371004503e+03 +1.1124271175461062e+06 +1.2473291192567876e+07 
-2.2999999999999998e+00 -5.2307974866535745e-01 +6.8726652582394108e+00 +5.5845086230747008e+00 -2.0281011747525960e+02 -4.5104189109165218e+03 +1.1109410520184238e+06 +1.2828213802892126e+07 
-2.3500000000000001e+00 -5.2309909519383380e-01 +6.8736128135726453e+00 +5.5664650668194460e+00 -2.0241415325920670e+02 -4.5678656028235737e+03 +1.1093044373420058e+06 +1.3188547005814072e+07 
-2.3999999999999999e+00 -5.2311878924056587e-01 +6.8745774718192685e+00 +5.5481337191192175e+00 -2.0199147741291833e+02 -4.6265091683350802e+03 +1.1075194047275840e+06 +1.3553674420813384e+07 
-2.4500000000000002e+00 -5.2313882849932591e-01 +6.8755590983759918e+00 +5.5295149998017612e+00 -2.0154265359526323e+02 -4.6862459346252499e+03 +1.1055880862117240e+06 +1.3922979441804180e+07 
-2.5000000000000000e+00 -5.2315921066382443e-01 +6.8765575586366490e+00 +5.5106093292307428e+00 -2.0106824532376027e+02 -4.7469722458841734e+03 +1.1035126126463474e+06 +1.4295845588639675e+07 
-2.5499999999999998e+00 -5.2317993342781466e-01 +6.8775727179994499e+00 +5.4914171295341836e+00 -2.0056881629357815e+02 -4.8085844984072419e+03 +1.1012951163921084e+06 +1.4671656751825435e+07 
-2.6000000000000001e+00 -5.2320099448509316e-01 +6.8786044418594585e+00 +5.4719388191187273e+00 -2.0004493005750282e+02 -4.8709789815643335e+03 +1.0989377286262724e+06 +1.5049796073687006e+07 
-2.6499999999999999e+00 -5.2322239152938188e-01 +6.8796525956132877e+00 +5.4521748196574560e+00 -1.9949715021975621e+02 -4.9340520790175087e+03 +1.0964425809803957e+06 +1.5429647360407593e+07 
-2.7000000000000002e+00 -5.2324412225445915e-01 +6.8807170446594128e+00 +5.4321255514993503e+00 -1.9892604044523969e+02 -4.9977001317356571e+03 +1.0938118055522342e+06 +1.5810594102661433e+07 
-2.7500000000000000e+00 -5.2326618435414396e-01 +6.8817976543947319e+00 +5.4117914364872908e+00 -1.9833216433509349e+02 -5.0618195261197279e+03 +1.0910475339696514e+06 +1.6192020119804479e+07 
-2.7999999999999998e+00 -5.2328857552217967e-01 +6.8828942902177079e+00 +5.3911728902573737e+00 -1.9771608553897445e+02 -5.1263064804472669e+03 +1.0881518982449013e+06 +1.6573308093258664e+07 
-2.8500000000000001e+00 -5.2331129345243665e-01 +6.8840068175254947e+00 +5.3702703396223050e+00 -1.9707836764891854e+02 -5.1910575088481037e+03 +1.0851270299368273e+06 +1.6953842684858896e+07 
-2.8999999999999999e+00 -5.2333433583869771e-01 +6.8851351017181113e+00 +5.3490841998056693e+00 -1.9641957435300910e+02 -5.2559688208149482e+03 +1.0819750613544302e+06 +1.7333006527292222e+07 
-2.9500000000000002e+00 -5.2335770037474694e-01 +6.8862790081953351e+00 +5.3276148925487625e+00 -1.9574026934313787e+02 -5.3209367929917807e+03 +1.0786981249349650e+06 +1.7710183353473842e+07 
-3.0000000000000000e+00 -5.2338138475446894e-01 +6.8874384023555999e+00 +5.3058628384771307e+00 -1.9504101622858136e+02 -5.3858577766314875e+03 +1.0752983523500883e+06 +1.8084756743547726e+07 
-3.0499999999999998e+00 -5.2340538667170411e-01 +6.8886131495976946e+00 +5.2838284577496077e+00 -1.9432237864467871e+02 -5.4506281088935939e+03 +1.0717778755683270e+06 +1.8456110179139398e+07 
-3.1000000000000001e+00 -5.2342970382027854e-01 +6.8898031153241268e+00 +5.2615121706847479e+00 -1.9358492035818009e+02 -5.5151441284182374e+03 +1.0681388275939771e+06 +1.8823627141223580e+07 
-3.1499999999999999e+00 -5.2345433389409646e-01 +6.8910081649339165e+00 +5.2389143968554963e+00 -1.9282920500340347e+02 -5.5793021561626892e+03 +1.0643833403918529e+06 +1.9186691005669732e+07 
-3.2000000000000002e+00 -5.2347927458694710e-01 +6.8922281638281850e+00 +5.2160355562531500e+00 -1.9205579628437755e+02 -5.6429985226753042e+03 +1.0605135464926267e+06 +1.9544685204196997e+07 
-3.2500000000000000e+00 -5.2350452359274091e-01 +6.8934629774073706e+00 +5.1928760708398052e+00 -1.9126525787585069e+02 -5.7061296080064367e+03 +1.0565315781810123e+06 +1.9896993494727544e+07 
-3.2999999999999998e+00 -5.2353007860537160e-01 +6.8947124710743060e+00 +5.1694363586897989e+00 -1.9045815355550056e+02 -5.7685916927570161e+03 +1.0524395686279829e+06 +2.0242998986668911e+07 
-3.3500000000000001e+00 -5.2355593731873085e-01 +6.8959765102313559e+00 +5.1457168403154858e+00 -1.8963504706375329e+02 -5.8302811156223961e+03 +1.0482396506477296e+06 +2.0582085151042439e+07 
-3.3999999999999999e+00 -5.2358209742669748e-01 +6.8972549602789712e+00 +5.1217179373844939e+00 -1.8879650207520180e+02 -5.8910942511898174e+03 +1.0439339565895451e+06 +2.0913635724181317e+07 
-3.4500000000000002e+00 -5.2360855662319516e-01 +6.8985476866213551e+00 +5.0974400689507933e+00 -1.8794308240695042e+02 -5.9509273985329073e+03 +1.0395246199331338e+06 +2.1237033917035948e+07 
-3.5000000000000000e+00 -5.2363531260210194e-01 +6.8998545546599184e+00 +5.0728836540270272e+00 -1.8707535177093720e+02 -6.0096768558055710e+03 +1.0350137733456560e+06 +2.1551662933909409e+07 
-3.5499999999999998e+00 -5.2366236305734770e-01 +6.9011754298001069e+00 +5.0480491149710707e+00 -1.8619387403270679e+02 -6.0672390112082903e+03 +1.0304035507226624e+06 +2.1856906592185345e+07 
-3.6000000000000001e+00 -5.2368970568289686e-01 +6.9025101774426396e+00 +5.0229368703772064e+00 -1.8529921287491212e+02 -6.1235101505867424e+03 +1.0256960844878490e+06 +2.2152148017456315e+07 
-3.6499999999999999e+00 -5.2371733817260335e-01 +6.9038586629925112e+00 +4.9975473402504527e+00 -1.8439193214485346e+02 -6.1783865963511716e+03 +1.0208935084136281e+06 +2.2436770578845691e+07 
-3.6999999999999900e+00 -5.2374525822048545e-01 +6.9052207518527435e+00 +4.9718809459796320e+00 -1.8347259562511061e+02 -6.2317647041277678e+03 +1.0159979557731409e+06 +2.2710157854067523e+07 
-3.7499999999999898e+00 -5.2377346352040410e-01 +6.9065963094298937e+00 +4.9459381068523527e+00 -1.8254176722962288e+02 -6.2835407765400578e+03 +1.0110115608959825e+06 +2.2971693084949475e+07 
-3.7999999999999901e+00 -5.2380195176636124e-01 +6.9079852011285423e+00 +4.9197192437005608e+00 -1.8160001080261060e+02 -6.3336111524567214e+03 +1.0059364575500429e+06 +2.3220759735798217e+07 
-3.8499999999999899e+00 -5.2383072065230796e-01 +6.9093872923506385e+00 +4.8932247763996592e+00 -1.8064789009018870e+02 -6.3818721466936204e+03 +1.0007747787522513e+06 +2.3456741123175088e+07 
-3.8999999999999901e+00 -5.2385976787217614e-01 +6.9108024485040449e+00 +4.8664551249642347e+00 -1.7968596906890210e+02 -6.4282200730191080e+03 +9.9552865935384505e+05 +2.3679020535258137e+07 
-3.9499999999999900e+00 -5.2388909108780235e-01 +6.9122305332260732e+00 +4.8394109031893127e+00 -1.7871482891285888e+02 -6.4725587937180062e+03 +9.9020043887757731e+05 +2.3887034622683354e+07 
-3.9999999999999898e+00 -5.2391868758813209e-01 +6.9136713828410379e+00 +4.8120954745546047e+00 -1.7773521647290650e+02 -6.5148799858269422e+03 +9.8479461523764092e+05 +2.4080824843309090e+07 
-4.0499999999999901e+00 -5.2394855442164279e-01 +6.9151248128384823e+00 +4.7845142474683611e+00 -1.7674797141387825e+02 -6.5552322487089978e+03 +9.7931697860132775e+05 +2.4260817337625403e+07 
-4.0999999999999899e+00 -5.2397868863285235e-01 +6.9165906382208773e+00 +4.7566726803185855e+00 -1.7575393469553558e+02 -6.5936651895604846e+03 +9.7377333823565952e+05 +2.4427444716841351e+07 
-4.1499999999999897e+00 -5.2400908726635032e-01 +6.9180686739908523e+00 +4.7285762258902775e+00 -1.7475394729881538e+02 -6.6302282616857683e+03 +9.6816950359657349e+05 +2.4581138544087406e+07 
-4.1999999999999904e+00 -5.2403974736664327e-01 +6.9195587351473380e+00 +4.7002303444984523e+00 -1.7374885004014499e+02 -6.6649711206145248e+03 +9.6251128273501177e+05 +2.4722331743795924e+07 
-4.2499999999999902e+00 -5.2407066597830210e-01 +6.9210606366923102e+00 +4.6716404945727374e+00 -1.7273948387230564e+02 -6.6979433730984856e+03 +9.5680448482245824e+05 +2.4851456919529986e+07 
-4.2999999999999901e+00 -5.2410184014583605e-01 +6.9225741936269545e+00 +4.6428121316996753e+00 -1.7172668971181855e+02 -6.7291945416888784e+03 +9.5105491869059578e+05 +2.4968946079531193e+07 
-4.3499999999999899e+00 -5.2413326691379580e-01 +6.9240992209509677e+00 +4.6137507153564412e+00 -1.7071130842168836e+02 -6.7587742599313706e+03 +9.4526839272427070e+05 +2.5075232001808397e+07 
-4.3999999999999897e+00 -5.2416494332674146e-01 +6.9256355336677640e+00 +4.5844617014187055e+00 -1.6969418101554390e+02 -6.7867320566012068e+03 +9.3945071649247198e+05 +2.5170746729388371e+07 
-4.4499999999999904e+00 -5.2419686642922891e-01 +6.9271829467760622e+00 +4.5549505497736682e+00 -1.6867614832317560e+02 -6.8131175695353813e+03 +9.3360769805799378e+05 +2.5255923045422200e+07 
-4.4999999999999902e+00 -5.2422903326574832e-01 +6.9287412752766269e+00 +4.5252227179354545e+00 -1.6765805125931905e+02 -6.8379803725326956e+03 +9.2774514613913116e+05 +2.5331193300216589e+07 
-4.5499999999999901e+00 -5.2426144088094973e-01 +6.9303103341724714e+00 +4.4952836645879435e+00 -1.6664073083476649e+02 -6.8613700658154185e+03 +9.2186887020019046e+05 +2.5396990003515199e+07 
-4.5999999999999899e+00 -5.2429408631925278e-01 +6.9318899384621506e+00 +4.4651388487081176e+00 -1.6562502787752132e+02 -6.8833362605459297e+03 +9.1598467819141014e+05 +2.5453745749592993e+07 
-4.6499999999999897e+00 -5.2432696662527967e-01 +6.9334799031460275e+00 +4.4347937292739665e+00 -1.6461178329955561e+02 -6.9039285637984513e+03 +9.1009837869660906e+05 +2.5501893089883767e+07 
-4.6999999999999904e+00 -5.2436007884357316e-01 +6.9350800432251303e+00 +4.4042537648540128e+00 -1.6360183805420155e+02 -6.9231965686127614e+03 +9.0421578066046105e+05 +2.5541864470328897e+07 
-4.7499999999999902e+00 -5.2439342001865463e-01 +6.9366901737000939e+00 +4.3735244154060187e+00 -1.6259603307173759e+02 -6.9411899075272804e+03 +8.9834269276425883e+05 +2.5574092609871458e+07 
-4.7999999999999901e+00 -5.2442698719509218e-01 +6.9383101095702422e+00 +4.3426111399874703e+00 -1.6159520923309137e+02 -6.9579581820177682e+03 +8.9248492322420771e+05 +2.5599009994953629e+07 
-4.8499999999999899e+00 -5.2446077741745434e-01 +6.9399396658351575e+00 +4.3115193994575458e+00 -1.6060020745242815e+02 -6.9735510488566388e+03 +8.8664828056947049e+05 +2.5617049505512297e+07 
-4.8999999999999897e+00 -5.2449478773017555e-01 +6.9415786574948735e+00 +4.2802546521606217e+00 -1.5961186864921643e+02 -6.9880180832739588e+03 +8.8083857326581609e+05 +2.5628643424053606e+07 
-4.9499999999999904e+00 -5.2452878397270331e-01 +6.9432157610167184e+00 +4.2490349973938368e+00 -1.5863761975665201e+02 -7.0013221192736128e+03 +8.7510038625554205e+05 +2.5634205481176160e+07 
-4.9999999999999902e+00 -5.2456299154403729e-01 +6.9448618093679020e+00 +4.2176554016578418e+00 -1.5767159818859477e+02 -7.0136130711851838e+03 +8.6940019590868265e+05 +2.5634259543324612e+07 
-5.0499999999999901e+00 -5.2459740754801731e-01 +6.9465166212596445e+00 +4.1861212162602479e+00 -1.5671462788373123e+02 -7.0249395968721219e+03 +8.6374369322117022e+05 +2.5629229759965058e+07 
