# field on trajectory
# s[mm] rx[mm] ry[mm] rz[mm] bx[T] by[T] bz[T]
0.0000000000000000e+00 +8.3650000000000002e+00 +0.0000000000000000e+00 +0.0000000000000000e+00 -2.9358751193678909e-02 -5.2551889498721671e-01 +5.3096657486535349e-03
-5.0000000000000003e-02 +8.3649999308903169e+00 +0.0000000000000000e+00 -4.9999999999936318e-02 -2.9359152237556148e-02 -5.2551978560651047e-01 +5.3102220626921777e-03
-1.0000000000000001e-01 +8.3649997235610964e+00 +0.0000000000000000e+00 -9.9999999999490538e-02 -2.9359572975889585e-02 -5.2552101492197401e-01 +5.3107797707784322e-03
-1.5000000000000002e-01 +8.3649993780120155e+00 +0.0000000000000000e+00 -1.4999999999828056e-01 -2.9360013321666038e-02 -5.2552258215445469e-01 +5.3113387593582808e-03
-2.0000000000000001e-01 +8.3649988942426621e+00 +0.0000000000000000e+00 -1.9999999999592433e-01 -2.9360473187873309e-02 -5.2552448652481509e-01 +5.3118989148777229e-03
-2.5000000000000000e-01 +8.3649982722525351e+00 +0.0000000000000000e+00 -2.4999999999203970e-01 -2.9360952487500133e-02 -5.2552672725393501e-01 +5.3124601237827303e-03
-2.9999999999999999e-01 +8.3649975120410449e+00 +0.0000000000000000e+00 -2.9999999998624455e-01 -2.9361451133536165e-02 -5.2552930356270999e-01 +5.3130222725192395e-03
-3.4999999999999998e-01 +8.3649966136075129e+00 +0.0000000000000000e+00 -3.4999999997815678e-01 -2.9361969038971984e-02 -5.2553221467205180e-01 +5.3135852475331407e-03
-3.9999999999999997e-01 +8.3649955769511752e+00 +0.0000000000000000e+00 -3.9999999996739433e-01 -2.9362506116798998e-02 -5.2553545980288896e-01 +5.3141489352702574e-03
-4.4999999999999996e-01 +8.3649944020711775e+00 +0.0000000000000000e+00 -4.4999999995357498e-01 -2.9363062280009494e-02 -5.2553903817616521e-01 +5.3147132221763229e-03
-4.9999999999999994e-01 +8.3649930889665800e+00 +0.0000000000000000e+00 -4.9999999993631661e-01 -2.9363637441596542e-02 -5.2554294901284015e-01 +5.3152779946969786e-03
-5.4999999999999993e-01 +8.3649916376363525e+00 +0.0000000000000000e+00 -5.4999999991523707e-01 -2.9364231514554043e-02 -5.2554719153388907e-01 +5.3158431392777436e-03
-5.9999999999999998e-01 +8.3649900480793793e+00 +0.0000000000000000e+00 -5.9999999988995423e-01 -2.9364844411876621e-02 -5.2555176496030231e-01 +5.3164085423640017e-03
-6.5000000000000002e-01 +8.3649883202944579e+00 +0.0000000000000000e+00 -6.4999999986008594e-01 -2.9365476046559657e-02 -5.2555666851308647e-01 +5.3169740904009943e-03
-7.0000000000000007e-01 +8.3649864542802987e+00 +0.0000000000000000e+00 -6.9999999982524996e-01 -2.9366126331599234e-02 -5.2556190141326209e-01 +5.3175396698337861e-03
-7.5000000000000011e-01 +8.3649844500355250e+00 +0.0000000000000000e+00 -7.4999999978506404e-01 -2.9366795179992126e-02 -5.2556746288186584e-01 +5.3181051671072673e-03
-8.0000000000000016e-01 +8.3649823075586749e+00 +0.0000000000000000e+00 -7.9999999973914604e-01 -2.9367482504735750e-02 -5.2557335213994794e-01 +5.3186704686661130e-03
-8.5000000000000020e-01 +8.3649800268481993e+00 +0.0000000000000000e+00 -8.4999999968711371e-01 -2.9368188218828171e-02 -5.2557956840857445e-01 +5.3192354609548007e-03
-9.0000000000000024e-01 +8.3649776079024623e+00 +0.0000000000000000e+00 -8.9999999962858479e-01 -2.9368912235268042e-02 -5.2558611090882579e-01 +5.3198000304175595e-03
-9.5000000000000029e-01 +8.3649750507197442e+00 +0.0000000000000000e+00 -9.4999999956317704e-01 -2.9369654467054602e-02 -5.2559297886179612e-01 +5.3203640634983734e-03
-1.0000000000000002e+00 +8.3649723552982387e+00 +0.0000000000000000e+00 -9.9999999949050811e-01 -2.9370414827187642e-02 -5.2560017148859473e-01 +5.3209274466409608e-03
-1.0500000000000003e+00 +8.3649695216360538e+00 +0.0000000000000000e+00 -1.0499999994101958e+00 -2.9371193228667464e-02 -5.2560768801034419e-01 +5.3214900662887522e-03
-1.1000000000000003e+00 +8.3649665497312125e+00 +0.0000000000000000e+00 -1.0999999993218577e+00 -2.9371989584494884e-02 -5.2561552764818176e-01 +5.3220518088848839e-03
-1.1500000000000004e+00 +8.3649634395816523e+00 +0.0000000000000000e+00 -1.1499999992251115e+00 -2.9372803807671169e-02 -5.2562368962325789e-01 +5.3226125608721664e-03
-1.2000000000000004e+00 +8.3649601911852276e+00 +0.0000000000000000e+00 -1.1999999991195749e+00 -2.9373635811198048e-02 -5.2563217315673705e-01 +5.3231722086930864e-03
-1.2500000000000004e+00 +8.3649568045397071e+00 +0.0000000000000000e+00 -1.2499999990048654e+00 -2.9374485508077659e-02 -5.2564097746979743e-01 +5.3237306387897733e-03
-1.3000000000000005e+00 +8.3649532796427746e+00 +0.0000000000000000e+00 -1.2999999988806004e+00 -2.9375352811312521e-02 -5.2565010178362981e-01 +5.3242877376039922e-03
-1.3500000000000005e+00 +8.3649496164920301e+00 +0.0000000000000000e+00 -1.3499999987463978e+00 -2.9376237633905553e-02 -5.2565954531943881e-01 +5.3248433915771267e-03
-1.4000000000000006e+00 +8.3649458150849902e+00 +0.0000000000000000e+00 -1.3999999986018750e+00 -2.9377139888859961e-02 -5.2566930729844241e-01 +5.3253974871501518e-03
-1.4500000000000006e+00 +8.3649418754190883e+00 +0.0000000000000000e+00 -1.4499999984466494e+00 -2.9378059489179303e-02 -5.2567938694187055e-01 +5.3259499107636363e-03
-1.5000000000000007e+00 +8.3649377974916721e+00 +0.0000000000000000e+00 -1.4999999982803385e+00 -2.9378996347867396e-02 -5.2568978347096684e-01 +5.3265005488577124e-03
-1.5500000000000007e+00 +8.3649335813000079e+00 +0.0000000000000000e+00 -1.5499999981025598e+00 -2.9379950377928326e-02 -5.2570049610698699e-01 +5.3270492878720547e-03
-1.6000000000000008e+00 +8.3649292268412765e+00 +0.0000000000000000e+00 -1.5999999979129309e+00 -2.9380921492366423e-02 -5.2571152407119970e-01 +5.3275960142458792e-03
-1.6500000000000008e+00 +8.3649247341125790e+00 +0.0000000000000000e+00 -1.6499999977110689e+00 -2.9381909604186192e-02 -5.2572286658488498e-01 +5.3281406144179162e-03
-1.7000000000000008e+00 +8.3649201031109328e+00 +0.0000000000000000e+00 -1.6999999974965911e+00 -2.9382914626392344e-02 -5.2573452286933642e-01 +5.3286829748263936e-03
-1.7500000000000009e+00 +8.3649153338332702e+00 +0.0000000000000000e+00 -1.7499999972691151e+00 -2.9383936471989724e-02 -5.2574649214585867e-01 +5.3292229819090261e-03
-1.8000000000000009e+00 +8.3649104262764453e+00 +0.0000000000000000e+00 -1.7999999970282581e+00 -2.9384975053983315e-02 -5.2575877363576851e-01 +5.3297605221029913e-03
-1.8500000000000010e+00 +8.3649053804372269e+00 +0.0000000000000000e+00 -1.8499999967736371e+00 -2.9386030285378176e-02 -5.2577136656039392e-01 +5.3302954818449160e-03
-1.9000000000000010e+00 +8.3649001963123020e+00 +0.0000000000000000e+00 -1.8999999965048697e+00 -2.9387102079179470e-02 -5.2578427014107620e-01 +5.3308277475708661e-03
-1.9500000000000011e+00 +8.3648948738982778e+00 +0.0000000000000000e+00 -1.9499999962215728e+00 -2.9388190348392382e-02 -5.2579748359916612e-01 +5.3313572057163200e-03
-2.0000000000000009e+00 +8.3648894131916798e+00 +0.0000000000000000e+00 -1.9999999959233636e+00 -2.9389295006022133e-02 -5.2581100615602661e-01 +5.3318837427161515e-03
-2.0500000000000007e+00 +8.3648838141889499e+00 +0.0000000000000000e+00 -2.0499999956098596e+00 -2.9390415961471794e-02 -5.2582483686846249e-01 +5.3324072539228003e-03
-2.1000000000000005e+00 +8.3648780768864519e+00 +0.0000000000000000e+00 -2.0999999952806774e+00 -2.9391553109736061e-02 -5.2583897413501257e-01 +5.3329276703608808e-03
-2.1500000000000004e+00 +8.3648722012804662e+00 +0.0000000000000000e+00 -2.1499999949354338e+00 -2.9392706342207833e-02 -5.2585341618965764e-01 +5.3334449319728406e-03
-2.2000000000000002e+00 +8.3648661873671948e+00 +0.0000000000000000e+00 -2.1999999945737465e+00 -2.9393875550280304e-02 -5.2586816126638669e-01 +5.3339589787007877e-03
-2.2500000000000000e+00 +8.3648600351427600e+00 +0.0000000000000000e+00 -2.2499999941952318e+00 -2.9395060625347035e-02 -5.2588320759920060e-01 +5.3344697504865155e-03
-2.2999999999999998e+00 +8.3648537446032059e+00 +0.0000000000000000e+00 -2.2999999937995068e+00 -2.9396261458801871e-02 -5.2589855342210923e-01 +5.3349771872714885e-03
-2.3499999999999996e+00 +8.3648473157444947e+00 +0.0000000000000000e+00 -2.3499999933861888e+00 -2.9397477942039008e-02 -5.2591419696913189e-01 +5.3354812289968497e-03
-2.3999999999999995e+00 +8.3648407485625107e+00 +0.0000000000000000e+00 -2.3999999929548941e+00 -2.9398709966452965e-02 -5.2593013647429765e-01 +5.3359818156034277e-03
-2.4499999999999993e+00 +8.3648340430530634e+00 +0.0000000000000000e+00 -2.4499999925052394e+00 -2.9399957423438549e-02 -5.2594637017164525e-01 +5.3364788870317280e-03
-2.4999999999999991e+00 +8.3648271992118843e+00 +0.0000000000000000e+00 -2.4999999920368419e+00 -2.9401220204390871e-02 -5.2596289629522153e-01 +5.3369723832219444e-03
-2.5499999999999989e+00 +8.3648202170346249e+00 +0.0000000000000000e+00 -2.5499999915493179e+00 -2.9402498200705396e-02 -5.2597971307908320e-01 +5.3374622441139594e-03
-2.5999999999999988e+00 +8.3648130965168619e+00 +0.0000000000000000e+00 -2.5999999910422842e+00 -2.9403791303777849e-02 -5.2599681875729476e-01 +5.3379484096473450e-03
-2.6499999999999986e+00 +8.3648058376540977e+00 +0.0000000000000000e+00 -2.6499999905153575e+00 -2.9405099405004277e-02 -5.2601421156393047e-01 +5.3384308197613629e-03
-2.6999999999999984e+00 +8.3647984404417581e+00 +0.0000000000000000e+00 -2.6999999899681542e+00 -2.9406422395781021e-02 -5.2603188973307169e-01 +5.3389094143949647e-03
-2.7499999999999982e+00 +8.3647909048751927e+00 +0.0000000000000000e+00 -2.7499999894002904e+00 -2.9407760167504720e-02 -5.2604985149880878e-01 +5.3393841334868110e-03
-2.7999999999999980e+00 +8.3647832309496781e+00 +0.0000000000000000e+00 -2.7999999888113831e+00 -2.9409112611572280e-02 -5.2606809509523977e-01 +5.3398549169752438e-03
-2.8499999999999979e+00 +8.3647754186604146e+00 +0.0000000000000000e+00 -2.8499999882010485e+00 -2.9410479619380918e-02 -5.2608661875647078e-01 +5.3403217047983181e-03
-2.8999999999999977e+00 +8.3647674680025315e+00 +0.0000000000000000e+00 -2.8999999875689029e+00 -2.9411861082328145e-02 -5.2610542071661548e-01 +5.3407844368937897e-03
-2.9499999999999975e+00 +8.3647593789710832e+00 +0.0000000000000000e+00 -2.9499999869145626e+00 -2.9413256891811700e-02 -5.2612449920979465e-01 +5.3412430531991108e-03
-2.9999999999999973e+00 +8.3647511515610518e+00 +0.0000000000000000e+00 -2.9999999862376439e+00 -2.9414666939229669e-02 -5.2614385247013740e-01 +5.3416974936514507e-03
-3.0499999999999972e+00 +8.3647427857673478e+00 +0.0000000000000000e+00 -3.0499999855377626e+00 -2.9416091115980363e-02 -5.2616347873177816e-01 +5.3421476981876832e-03
-3.0999999999999970e+00 +8.3647342815848091e+00 +0.0000000000000000e+00 -3.0999999848145356e+00 -2.9417529313462362e-02 -5.2618337622886036e-01 +5.3425936067443879e-03
-3.1499999999999968e+00 +8.3647256390082028e+00 +0.0000000000000000e+00 -3.1499999840675783e+00 -2.9418981423074548e-02 -5.2620354319553242e-01 +5.3430351592578676e-03
-3.1999999999999966e+00 +8.3647168580322244e+00 +0.0000000000000000e+00 -3.1999999832965069e+00 -2.9420447336216043e-02 -5.2622397786595088e-01 +5.3434722956641322e-03
-3.2499999999999964e+00 +8.3647079386514989e+00 +0.0000000000000000e+00 -3.2499999825009374e+00 -2.9421926944286227e-02 -5.2624467847427747e-01 +5.3439049558989173e-03
-3.2999999999999963e+00 +8.3646988808605833e+00 +0.0000000000000000e+00 -3.2999999816804855e+00 -2.9423420138684729e-02 -5.2626564325468062e-01 +5.3443330798976655e-03
-3.3499999999999961e+00 +8.3646896846539622e+00 +0.0000000000000000e+00 -3.3499999808347671e+00 -2.9424926810811460e-02 -5.2628687044133460e-01 +5.3447566075955572e-03
-3.3999999999999959e+00 +8.3646803500260525e+00 +0.0000000000000000e+00 -3.3999999799633982e+00 -2.9426446852066548e-02 -5.2630835826842015e-01 +5.3451754789274816e-03
-3.4499999999999957e+00 +8.3646708769712035e+00 +0.0000000000000000e+00 -3.4499999790659945e+00 -2.9427980153850387e-02 -5.2633010497012311e-01 +5.3455896338280608e-03
-3.4999999999999956e+00 +8.3646612654836954e+00 +0.0000000000000000e+00 -3.4999999781421716e+00 -2.9429526607563612e-02 -5.2635210878063454e-01 +5.3459990122316503e-03
-3.5499999999999954e+00 +8.3646515155577408e+00 +0.0000000000000000e+00 -3.5499999771915451e+00 -2.9431086104607079e-02 -5.2637436793415149e-01 +5.3464035540723267e-03
-3.5999999999999952e+00 +8.3646416271874866e+00 +0.0000000000000000e+00 -3.5999999762137307e+00 -2.9432658536381922e-02 -5.2639688066487622e-01 +5.3468031992839043e-03
-3.6499999999999950e+00 +8.3646316003670105e+00 +0.0000000000000000e+00 -3.6499999752083436e+00 -2.9434243794289442e-02 -5.2641964520701501e-01 +5.3471978877999296e-03
-3.6999999999999948e+00 +8.3646214350903243e+00 +0.0000000000000000e+00 -3.6999999741749994e+00 -2.9435841769731227e-02 -5.2644265979477978e-01 +5.3475875595536829e-03
-3.7499999999999947e+00 +8.3646111313513760e+00 +0.0000000000000000e+00 -3.7499999731133129e+00 -2.9437452354109064e-02 -5.2646592266238712e-01 +5.3479721544781953e-03
-3.7999999999999945e+00 +8.3646006891440479e+00 +0.0000000000000000e+00 -3.7999999720229001e+00 -2.9439075438824978e-02 -5.2648943204405763e-01 +5.3483516125062257e-03
-3.8499999999999943e+00 +8.3645901084621563e+00 +0.0000000000000000e+00 -3.8499999709033759e+00 -2.9440710915281165e-02 -5.2651318617401577e-01 +5.3487258735702772e-03
-3.8999999999999941e+00 +8.3645793892994522e+00 +0.0000000000000000e+00 -3.8999999697543553e+00 -2.9442358674880119e-02 -5.2653718328649113e-01 +5.3490948776026117e-03
-3.9499999999999940e+00 +8.3645685316496259e+00 +0.0000000000000000e+00 -3.9499999685754537e+00 -2.9444018609024476e-02 -5.2656142161571640e-01 +5.3494585645352203e-03
-3.9999999999999938e+00 +8.3645575355063020e+00 +0.0000000000000000e+00 -3.9999999673662860e+00 -2.9445690609117083e-02 -5.2658589939592781e-01 +5.3498168742998524e-03
-4.0499999999999936e+00 +8.3645464008630430e+00 +0.0000000000000000e+00 -4.0499999661264674e+00 -2.9447374562769118e-02 -5.2661061471680115e-01 +5.3501697544096321e-03
-4.0999999999999934e+00 +8.3645351277133475e+00 +0.0000000000000000e+00 -4.0999999648556127e+00 -2.9449070342424194e-02 -5.2663556508975207e-01 +5.3505171827038745e-03
-4.1499999999999932e+00 +8.3645237160506536e+00 +0.0000000000000000e+00 -4.1499999635533360e+00 -2.9450777816734070e-02 -5.2666074788163419e-01 +5.3508591446030209e-03
-4.1999999999999931e+00 +8.3645121658683390e+00 +0.0000000000000000e+00 -4.1999999622192528e+00 -2.9452496854350554e-02 -5.2668616045930217e-01 +5.3511956255269770e-03
-4.2499999999999929e+00 +8.3645004771597193e+00 +0.0000000000000000e+00 -4.2499999608529775e+00 -2.9454227323925490e-02 -5.2671180018961183e-01 +5.3515266108950868e-03
-4.2999999999999927e+00 +8.3644886499180515e+00 +0.0000000000000000e+00 -4.2999999594541247e+00 -2.9455969094110749e-02 -5.2673766443942138e-01 +5.3518520861261390e-03
-4.3499999999999925e+00 +8.3644766841365321e+00 +0.0000000000000000e+00 -4.3499999580223099e+00 -2.9457722033558245e-02 -5.2676375057559000e-01 +5.3521720366383526e-03
-4.3999999999999924e+00 +8.3644645798083008e+00 +0.0000000000000000e+00 -4.3999999565571466e+00 -2.9459486010919911e-02 -5.2679005596497730e-01 +5.3524864478493688e-03
-4.4499999999999922e+00 +8.3644523369264387e+00 +0.0000000000000000e+00 -4.4499999550582494e+00 -2.9461260894847675e-02 -5.2681657797444381e-01 +5.3527953051762563e-03
-4.4999999999999920e+00 +8.3644399554839701e+00 +0.0000000000000000e+00 -4.4999999535252320e+00 -2.9463046553993472e-02 -5.2684331397085105e-01 +5.3530985940354880e-03
-4.5499999999999918e+00 +8.3644274354738641e+00 +0.0000000000000000e+00 -4.5499999519577097e+00 -2.9464842857009264e-02 -5.2687026132106052e-01 +5.3533962998429455e-03
-4.5999999999999917e+00 +8.3644147768890331e+00 +0.0000000000000000e+00 -4.5999999503552962e+00 -2.9466649672546936e-02 -5.2689741739193363e-01 +5.3536884080139097e-03
-4.6499999999999915e+00 +8.3644019797223343e+00 +0.0000000000000000e+00 -4.6499999487176051e+00 -2.9468466869258404e-02 -5.2692477955033212e-01 +5.3539749039630494e-03
-4.6999999999999913e+00 +8.3643890439665718e+00 +0.0000000000000000e+00 -4.6999999470442511e+00 -2.9470294315795547e-02 -5.2695234516311718e-01 +5.3542557731044238e-03
-4.7499999999999911e+00 +8.3643759696144944e+00 +0.0000000000000000e+00 -4.7499999453348485e+00 -2.9472131880810198e-02 -5.2698011159714919e-01 +5.3545310008514604e-03
-4.7999999999999909e+00 +8.3643627566587995e+00 +0.0000000000000000e+00 -4.7999999435890102e+00 -2.9473979432954156e-02 -5.2700807621928858e-01 +5.3548005726169676e-03
-4.8499999999999908e+00 +8.3643494050921330e+00 +0.0000000000000000e+00 -4.8499999418063506e+00 -2.9475836840879160e-02 -5.2703623639639385e-01 +5.3550644738131134e-03
-4.8999999999999906e+00 +8.3643359149070893e+00 +0.0000000000000000e+00 -4.8999999399864835e+00 -2.9477703973236884e-02 -5.2706458949532287e-01 +5.3553226898514217e-03
-4.9499999999999904e+00 +8.3643222860962094e+00 +0.0000000000000000e+00 -4.9499999381290225e+00 -2.9479580698678953e-02 -5.2709313288293180e-01 +5.3555752061427691e-03
-4.9999999999999902e+00 +8.3643085186519865e+00 +0.0000000000000000e+00 -4.9999999362335812e+00 -2.9481466885856931e-02 -5.2712186392607574e-01 +5.3558220080973766e-03
-5.0499999999999901e+00 +8.3642946125668658e+00 +0.0000000000000000e+00 -5.0499999342997732e+00 -2.9483362403422232e-02 -5.2715077999160720e-01 +5.3560630811247956e-03
-5.0999999999999899e+00 +8.3642805678332408e+00 +0.0000000000000000e+00 -5.0999999323272114e+00 -2.9485267120026266e-02 -5.2717987844637759e-01 +5.3562984106339147e-03
-5.1499999999999897e+00 +8.3642663844434573e+00 +0.0000000000000000e+00 -5.1499999303155102e+00 -2.9487180904320270e-02 -5.2720915665723456e-01 +5.3565279820329409e-03
-5.1999999999999895e+00 +8.3642520623898164e+00 +0.0000000000000000e+00 -5.1999999282642815e+00 -2.9489103624955451e-02 -5.2723861199102506e-01 +5.3567517807293994e-03
-5.2499999999999893e+00 +8.3642376016645699e+00 +0.0000000000000000e+00 -5.2499999261731398e+00 -2.9491035150582830e-02 -5.2726824181459209e-01 +5.3569697921301207e-03
-5.2999999999999892e+00 +8.3642230022599264e+00 +0.0000000000000000e+00 -5.2999999240416980e+00 -2.9492975349853345e-02 -5.2729804349477638e-01 +5.3571820016412438e-03
-5.3499999999999890e+00 +8.3642082641680471e+00 +0.0000000000000000e+00 -5.3499999218695686e+00 -2.9494924091417803e-02 -5.2732801439841503e-01 +5.3573883946682012e-03
-5.3999999999999888e+00 +8.3641933873810483e+00 +0.0000000000000000e+00 -5.3999999196563646e+00 -2.9496881243926867e-02 -5.2735815189234203e-01 +5.3575889566157059e-03
-5.4499999999999886e+00 +8.3641783718910041e+00 +0.0000000000000000e+00 -5.4499999174016995e+00 -2.9498846676031081e-02 -5.2738845334338824e-01 +5.3577836728877651e-03
-5.4999999999999885e+00 +8.3641632176899456e+00 +0.0000000000000000e+00 -5.4999999151051853e+00 -2.9500820256380782e-02 -5.2741891611837988e-01 +5.3579725288876489e-03
-5.5499999999999883e+00 +8.3641479247698616e+00 +0.0000000000000000e+00 -5.5499999127664355e+00 -2.9502801853626196e-02 -5.2744953758413993e-01 +5.3581555100179054e-03
-5.5999999999999881e+00 +8.3641324931226961e+00 +0.0000000000000000e+00 -5.5999999103850620e+00 -2.9504791336417365e-02 -5.2748031510748694e-01 +5.3583326016803344e-03
-5.6499999999999879e+00 +8.3641169227403562e+00 +0.0000000000000000e+00 -5.6499999079606775e+00 -2.9506788573404157e-02 -5.2751124605523503e-01 +5.3585037892759993e-03
-5.6999999999999877e+00 +8.3641012136147062e+00 +0.0000000000000000e+00 -5.6999999054928949e+00 -2.9508793433236254e-02 -5.2754232779419319e-01 +5.3586690582052053e-03
-5.7499999999999876e+00 +8.3640853657375711e+00 +0.0000000000000000e+00 -5.7499999029813269e+00 -2.9510805784563145e-02 -5.2757355769116654e-01 +5.3588283938674937e-03
-5.7999999999999874e+00 +8.3640693791007372e+00 +0.0000000000000000e+00 -5.7999999004255853e+00 -2.9512825496034151e-02 -5.2760493311295442e-01 +5.3589817816616500e-03
-5.8499999999999872e+00 +8.3640532536959515e+00 +0.0000000000000000e+00 -5.8499998978252821e+00 -2.9514852436298335e-02 -5.2763645142635107e-01 +5.3591292069856775e-03
