# field on trajectory
# s[mm] rx[mm] ry[mm] rz[mm] bx[T] by[T] bz[T]
0.0000000000000000e+00 +8.5270000000000206e+00 +0.0000000000000000e+00 +0.0000000000000000e+00 -2.7888936742400335e-02 -5.2372595878497163e-01 +6.0031186554779176e-03
5.0000000000000003e-02 +8.5269999309457507e+00 +0.0000000000000000e+00 +4.9999999999936401e-02 -2.7887351377169058e-02 -5.2372607776945712e-01 +6.0013979616204581e-03
1.0000000000000001e-01 +8.5269997237846802e+00 +0.0000000000000000e+00 +9.9999999999491399e-02 -2.7885787006218323e-02 -5.2372655330890294e-01 +5.9996690843772457e-03
1.4999999999999999e-01 +8.5269993785186706e+00 +0.0000000000000000e+00 +1.4999999999828301e-01 -2.7884243734244758e-02 -5.2372738473766756e-01 +5.9979321870070774e-03
2.0000000000000001e-01 +8.5269988951477007e+00 +0.0000000000000000e+00 +1.9999999999593099e-01 -2.7882721665946093e-02 -5.2372857139013751e-01 +5.9961874327684444e-03
2.5000000000000000e-01 +8.5269982736681396e+00 +0.0000000000000000e+00 +2.4999999999205300e-01 -2.7881220906021884e-02 -5.2373011260074009e-01 +5.9944349849197559e-03
2.9999999999999999e-01 +8.5269975140799907e+00 +0.0000000000000000e+00 +2.9999999998626697e-01 -2.7879741559170855e-02 -5.2373200770389250e-01 +5.9926750067186146e-03
3.4999999999999998e-01 +8.5269966163905302e+00 +0.0000000000000000e+00 +3.4999999997819298e-01 -2.7878283730089541e-02 -5.2373425603397794e-01 +5.9909076614215115e-03
4.0000000000000002e-01 +8.5269955805888493e+00 +0.0000000000000000e+00 +3.9999999996744801e-01 -2.7876847523482292e-02 -5.2373685692552008e-01 +5.9891331122863397e-03
4.5000000000000001e-01 +8.5269944066858407e+00 +0.0000000000000000e+00 +4.4999999995365197e-01 -2.7875433044045755e-02 -5.2373980971290723e-01 +5.9873515225684678e-03
5.0000000000000000e-01 +8.5269930946742498e+00 +0.0000000000000000e+00 +4.9999999993642202e-01 -2.7874040396484601e-02 -5.2374311373066873e-01 +5.9855630555247282e-03
5.5000000000000004e-01 +8.5269916445577092e+00 +0.0000000000000000e+00 +5.4999999991537796e-01 -2.7872669685500211e-02 -5.2374676831327427e-01 +5.9837678744105441e-03
5.9999999999999998e-01 +8.5269900563289394e+00 +0.0000000000000000e+00 +5.9999999989013697e-01 -2.7871321015799411e-02 -5.2375077279528337e-01 +5.9819661424821407e-03
6.5000000000000002e-01 +8.5269883299988596e+00 +0.0000000000000000e+00 +6.4999999986031898e-01 -2.7869994492083015e-02 -5.2375512651114664e-01 +5.9801580229936436e-03
6.9999999999999996e-01 +8.5269864655601904e+00 +0.0000000000000000e+00 +6.9999999982554195e-01 -2.7868690219060258e-02 -5.2375982879545335e-01 +5.9783436792007327e-03
7.5000000000000000e-01 +8.5269844630165608e+00 +0.0000000000000000e+00 +7.4999999978542398e-01 -2.7867408301437507e-02 -5.2376487898273494e-01 +5.9765232743577944e-03
8.0000000000000004e-01 +8.5269823223679904e+00 +0.0000000000000000e+00 +7.9999999973958402e-01 -2.7866148843923969e-02 -5.2377027640756146e-01 +5.9746969717193402e-03
8.4999999999999998e-01 +8.5269800436108198e+00 +0.0000000000000000e+00 +8.4999999968764095e-01 -2.7864911951231832e-02 -5.2377602040454418e-01 +5.9728649345400751e-03
9.0000000000000002e-01 +8.5269776267450705e+00 +0.0000000000000000e+00 +8.9999999962921295e-01 -2.7863697728073546e-02 -5.2378211030828381e-01 +5.9710273260741671e-03
9.4999999999999996e-01 +8.5269750717743609e+00 +0.0000000000000000e+00 +9.4999999956391801e-01 -2.7862506279161793e-02 -5.2378854545337072e-01 +5.9691843095752914e-03
1.0000000000000000e+00 +8.5269723786986997e+00 +0.0000000000000000e+00 +9.9999999949137597e-01 -2.7861337709212588e-02 -5.2379532517443661e-01 +5.9673360482973567e-03
1.0500000000000000e+00 +8.5269695475144491e+00 +0.0000000000000000e+00 +1.0499999994111999e+00 -2.7860192122945208e-02 -5.2380244880615168e-01 +5.9654827054945380e-03
1.1000000000000001e+00 +8.5269665782288904e+00 +0.0000000000000000e+00 +1.0999999993230201e+00 -2.7859069625076734e-02 -5.2380991568312762e-01 +5.9636244444198593e-03
1.1499999999999999e+00 +8.5269634708311095e+00 +0.0000000000000000e+00 +1.1499999992264500e+00 -2.7857970320333405e-02 -5.2381772514011471e-01 +5.9617614283280747e-03
1.2000000000000000e+00 +8.5269602253283701e+00 +0.0000000000000000e+00 +1.1999999991210999e+00 -2.7856894313436575e-02 -5.2382587651175383e-01 +5.9598938204721329e-03
1.2500000000000000e+00 +8.5269568417206791e+00 +0.0000000000000000e+00 +1.2499999990065900e+00 -2.7855841709112698e-02 -5.2383436913275094e-01 +5.9580217841056753e-03
1.3000000000000000e+00 +8.5269533200044005e+00 +0.0000000000000000e+00 +1.2999999988825499e+00 -2.7854812612092026e-02 -5.2384320233785098e-01 +5.9561454824827208e-03
1.3500000000000001e+00 +8.5269496601795307e+00 +0.0000000000000000e+00 +1.3499999987485900e+00 -2.7853807127105869e-02 -5.2385237546178975e-01 +5.9542650788569698e-03
1.3999999999999999e+00 +8.5269458622533403e+00 +0.0000000000000000e+00 +1.3999999986043401e+00 -2.7852825358885228e-02 -5.2386188783926702e-01 +5.9523807364814585e-03
1.4500000000000000e+00 +8.5269419262185693e+00 +0.0000000000000000e+00 +1.4499999984494001e+00 -2.7851867412169416e-02 -5.2387173880509741e-01 +5.9504926186107390e-03
1.5000000000000000e+00 +8.5269378520752106e+00 +0.0000000000000000e+00 +1.4999999982833900e+00 -2.7850933391697679e-02 -5.2388192769406050e-01 +5.9486008884987495e-03
1.5500000000000000e+00 +8.5269336398268898e+00 +0.0000000000000000e+00 +1.5499999981059500e+00 -2.7850023402210652e-02 -5.2389245384092564e-01 +5.9467057093991983e-03
1.6000000000000001e+00 +8.5269292894736299e+00 +0.0000000000000000e+00 +1.5999999979166799e+00 -2.7849137548453282e-02 -5.2390331658050138e-01 +5.9448072445662959e-03
1.6499999999999999e+00 +8.5269248010117700e+00 +0.0000000000000000e+00 +1.6499999977152000e+00 -2.7848275935175006e-02 -5.2391451524763621e-01 +5.9429056572547810e-03
1.7000000000000000e+00 +8.5269201744449692e+00 +0.0000000000000000e+00 +1.6999999975011300e+00 -2.7847438667125430e-02 -5.2392604917714292e-01 +5.9410011107188651e-03
1.7500000000000000e+00 +8.5269154097695701e+00 +0.0000000000000000e+00 +1.7499999972740901e+00 -2.7846625849060277e-02 -5.2393791770389930e-01 +5.9390937682136935e-03
1.8000000000000000e+00 +8.5269105069892195e+00 +0.0000000000000000e+00 +1.7999999970336999e+00 -2.7845837585735653e-02 -5.2395012016274733e-01 +5.9371837929939348e-03
1.8500000000000001e+00 +8.5269054661039299e+00 +0.0000000000000000e+00 +1.8499999967795799e+00 -2.7845073981912490e-02 -5.2396265588856827e-01 +5.9352713483148654e-03
1.8999999999999999e+00 +8.5269002871100401e+00 +0.0000000000000000e+00 +1.8999999965113501e+00 -2.7844335142356593e-02 -5.2397552421628346e-01 +5.9333565974324090e-03
1.9500000000000000e+00 +8.5268949700112007e+00 +0.0000000000000000e+00 +1.9499999962286201e+00 -2.7843621171834483e-02 -5.2398872448077816e-01 +5.9314397036020752e-03
2.0000000000000000e+00 +8.5268895148037700e+00 +0.0000000000000000e+00 +1.9999999959310100e+00 -2.7842932175119149e-02 -5.2400225601700201e-01 +5.9295208300804052e-03
2.0499999999999998e+00 +8.5268839213858900e+00 +0.0000000000000000e+00 +2.0499999956181298e+00 -2.7842268217612650e-02 -5.2401611793923331e-01 +5.9276001393546284e-03
2.1000000000000001e+00 +8.5268781896593300e+00 +0.0000000000000000e+00 +2.0999999952895898e+00 -2.7841629207066423e-02 -5.2403030847629217e-01 +5.9256777907952798e-03
2.1499999999999999e+00 +8.5268723196240899e+00 +0.0000000000000000e+00 +2.1499999949449999e+00 -2.7841015011781278e-02 -5.2404482563497057e-01 +5.9237539429844357e-03
2.2000000000000002e+00 +8.5268663112729008e+00 +0.0000000000000000e+00 +2.1999999945839801e+00 -2.7840425500061234e-02 -5.2405966742212229e-01 +5.9218287545050718e-03
2.2500000000000000e+00 +8.5268601646093902e+00 +0.0000000000000000e+00 +2.2499999942061502e+00 -2.7839860540206297e-02 -5.2407483184453663e-01 +5.9199023839393277e-03
2.2999999999999998e+00 +8.5268538796335598e+00 +0.0000000000000000e+00 +2.2999999938111202e+00 -2.7839320000517937e-02 -5.2409031690903796e-01 +5.9179749898699112e-03
2.3500000000000001e+00 +8.5268474563490599e+00 +0.0000000000000000e+00 +2.3499999933985198e+00 -2.7838803749296259e-02 -5.2410612062243589e-01 +5.9160467308794181e-03
2.3999999999999999e+00 +8.5268408947522403e+00 +0.0000000000000000e+00 +2.3999999929679601e+00 -2.7838311654844097e-02 -5.2412224099160054e-01 +5.9141177655513862e-03
2.4500000000000002e+00 +8.5268341948467405e+00 +0.0000000000000000e+00 +2.4499999925190501e+00 -2.7837843585461174e-02 -5.2413867602336084e-01 +5.9121882524689100e-03
2.5000000000000000e+00 +8.5268273566252901e+00 +0.0000000000000000e+00 +2.4999999920514302e+00 -2.7837399409451152e-02 -5.2415542372463098e-01 +5.9102583502163878e-03
2.5499999999999998e+00 +8.5268203800987994e+00 +0.0000000000000000e+00 +2.5499999915646900e+00 -2.7836978995110156e-02 -5.2417248210220935e-01 +5.9083282173767581e-03
2.6000000000000001e+00 +8.5268132652563509e+00 +0.0000000000000000e+00 +2.5999999910584699e+00 -2.7836582210742249e-02 -5.2418984916305333e-01 +5.9063980125353367e-03
2.6499999999999999e+00 +8.5268060121015896e+00 +0.0000000000000000e+00 +2.6499999905323701e+00 -2.7836208924645132e-02 -5.2420752291402906e-01 +5.9044678942763353e-03
2.7000000000000002e+00 +8.5267986206345103e+00 +0.0000000000000000e+00 +2.6999999899860101e+00 -2.7835859005117123e-02 -5.2422550136203638e-01 +5.9025380211846163e-03
2.7500000000000000e+00 +8.5267910908551094e+00 +0.0000000000000000e+00 +2.7499999894190199e+00 -2.7835532320455662e-02 -5.2424378251398385e-01 +5.9006085518453757e-03
2.7999999999999998e+00 +8.5267834227670392e+00 +0.0000000000000000e+00 +2.7999999888310101e+00 -2.7835228738955699e-02 -5.2426236437676232e-01 +5.8986796448437682e-03
2.8500000000000001e+00 +8.5267756163666508e+00 +0.0000000000000000e+00 +2.8499999882215898e+00 -2.7834948128913937e-02 -5.2428124495732176e-01 +5.8967514587659970e-03
2.8999999999999999e+00 +8.5267676716539391e+00 +0.0000000000000000e+00 +2.8999999875903901e+00 -2.7834690358624396e-02 -5.2430042226259410e-01 +5.8948241521982608e-03
2.9500000000000002e+00 +8.5267595886289200e+00 +0.0000000000000000e+00 +2.9499999869370299e+00 -2.7834455296379724e-02 -5.2431989429951897e-01 +5.8928978837271143e-03
3.0000000000000000e+00 +8.5267513672915793e+00 +0.0000000000000000e+00 +2.9999999862611100e+00 -2.7834242810471109e-02 -5.2433965907504398e-01 +5.8909728119394831e-03
3.0499999999999998e+00 +8.5267430076455604e+00 +0.0000000000000000e+00 +3.0499999855622502e+00 -2.7834052769186730e-02 -5.2435971459609743e-01 +5.8890490954223275e-03
3.1000000000000001e+00 +8.5267345096872305e+00 +0.0000000000000000e+00 +3.0999999848400801e+00 -2.7833885040815885e-02 -5.2438005886966543e-01 +5.8871268927636897e-03
3.1499999999999999e+00 +8.5267258734165807e+00 +0.0000000000000000e+00 +3.1499999840942201e+00 -2.7833739493644670e-02 -5.2440068990271582e-01 +5.8852063625516593e-03
3.2000000000000002e+00 +8.5267170988336094e+00 +0.0000000000000000e+00 +3.1999999833242700e+00 -2.7833615995957246e-02 -5.2442160570222274e-01 +5.8832876633747519e-03
3.2500000000000000e+00 +8.5267081859419704e+00 +0.0000000000000000e+00 +3.2499999825298600e+00 -2.7833514416034287e-02 -5.2444280427514045e-01 +5.8813709538215421e-03
3.2999999999999998e+00 +8.5266991347380099e+00 +0.0000000000000000e+00 +3.2999999817106000e+00 -2.7833434622157198e-02 -5.2446428362848130e-01 +5.8794563924817380e-03
3.3500000000000001e+00 +8.5266899452181004e+00 +0.0000000000000000e+00 +3.3499999808661101e+00 -2.7833376482605057e-02 -5.2448604176926117e-01 +5.8775441379454790e-03
3.3999999999999999e+00 +8.5266806173895002e+00 +0.0000000000000000e+00 +3.3999999799960099e+00 -2.7833339865650369e-02 -5.2450807670442823e-01 +5.8756343488023362e-03
3.4500000000000002e+00 +8.5266711512522306e+00 +0.0000000000000000e+00 +3.4499999790999101e+00 -2.7833324639565945e-02 -5.2453038644098438e-01 +5.8737271836430266e-03
3.5000000000000000e+00 +8.5266615468026394e+00 +0.0000000000000000e+00 +3.4999999781774398e+00 -2.7833330672623422e-02 -5.2455296898596315e-01 +5.8718228010590833e-03
3.5499999999999998e+00 +8.5266518040407409e+00 +0.0000000000000000e+00 +3.5499999772282100e+00 -2.7833357833090291e-02 -5.2457582234637679e-01 +5.8699213596421738e-03
3.6000000000000001e+00 +8.5266419229665207e+00 +0.0000000000000000e+00 +3.5999999762518402e+00 -2.7833405989231202e-02 -5.2459894452924249e-01 +5.8680230179844759e-03
3.6499999999999999e+00 +8.5266319035799807e+00 +0.0000000000000000e+00 +3.6499999752479400e+00 -2.7833475009307888e-02 -5.2462233354158228e-01 +5.8661279346786518e-03
3.6999999999999900e+00 +8.5266217458847695e+00 +0.0000000000000000e+00 +3.6999999742161398e+00 -2.7833564761577553e-02 -5.2464598739039636e-01 +5.8642362683175532e-03
3.7499999999999898e+00 +8.5266114498736005e+00 +0.0000000000000000e+00 +3.7499999731560498e+00 -2.7833675114298559e-02 -5.2466990408276526e-01 +5.8623481774955780e-03
3.7999999999999901e+00 +8.5266010155537497e+00 +0.0000000000000000e+00 +3.7999999720672801e+00 -2.7833805935720230e-02 -5.2469408162567210e-01 +5.8604638208062908e-03
3.8499999999999899e+00 +8.5265904429179500e+00 +0.0000000000000000e+00 +3.8499999709494599e+00 -2.7833957094094225e-02 -5.2471851802620462e-01 +5.8585833568451659e-03
3.8999999999999901e+00 +8.5265797319771099e+00 +0.0000000000000000e+00 +3.8999999698022001e+00 -2.7834128457661540e-02 -5.2474321129132695e-01 +5.8567069442065417e-03
3.9499999999999900e+00 +8.5265688827203103e+00 +0.0000000000000000e+00 +3.9499999686251202e+00 -2.7834319894668117e-02 -5.2476815942815891e-01 +5.8548347414873582e-03
3.9999999999999898e+00 +8.5265578951548395e+00 +0.0000000000000000e+00 +3.9999999674178399e+00 -2.7834531273349006e-02 -5.2479336044369551e-01 +5.8529669072834231e-03
4.0499999999999901e+00 +8.5265467692734092e+00 +0.0000000000000000e+00 +4.0499999661799704e+00 -2.7834762441809466e-02 -5.2481881222450510e-01 +5.8511035823058067e-03
4.0999999999999899e+00 +8.5265355050833005e+00 +0.0000000000000000e+00 +4.0999999649111301e+00 -2.7835013167619858e-02 -5.2484451217492800e-01 +5.8492448357177788e-03
4.1499999999999897e+00 +8.5265241025808791e+00 +0.0000000000000000e+00 +4.1499999636109504e+00 -2.7835283198223652e-02 -5.2487045757884931e-01 +5.8473907187972804e-03
4.1999999999999904e+00 +8.5265125617697795e+00 +0.0000000000000000e+00 +4.1999999622790298e+00 -2.7835572281062485e-02 -5.2489664572010297e-01 +5.8455412828220072e-03
4.2499999999999902e+00 +8.5265008826427202e+00 +0.0000000000000000e+00 +4.2499999609149901e+00 -2.7835880163583359e-02 -5.2492307388259918e-01 +5.8436965790710912e-03
4.2999999999999901e+00 +8.5264890652069898e+00 +0.0000000000000000e+00 +4.2999999595184599e+00 -2.7836206593228639e-02 -5.2494973935014588e-01 +5.8418566588227449e-03
4.3499999999999899e+00 +8.5264771094589396e+00 +0.0000000000000000e+00 +4.3499999580890396e+00 -2.7836551317446154e-02 -5.2497663940662709e-01 +5.8400215733566269e-03
4.3999999999999897e+00 +8.5264650153985695e+00 +0.0000000000000000e+00 +4.3999999566263703e+00 -2.7836914083683460e-02 -5.2500377133589904e-01 +5.8381913739525013e-03
4.4499999999999904e+00 +8.5264527830295300e+00 +0.0000000000000000e+00 +4.4499999551300400e+00 -2.7837294639387951e-02 -5.2503113242179267e-01 +5.8363661118902444e-03
4.4999999999999902e+00 +8.5264404123481707e+00 +0.0000000000000000e+00 +4.4999999535996897e+00 -2.7837692732011119e-02 -5.2505871994818742e-01 +5.8345458384508496e-03
4.5499999999999901e+00 +8.5264279033544899e+00 +0.0000000000000000e+00 +4.5499999520349199e+00 -2.7838108109004334e-02 -5.2508653119893556e-01 +5.8327306049154358e-03
4.5999999999999899e+00 +8.5264152560448601e+00 +0.0000000000000000e+00 +4.5999999504353601e+00 -2.7838540517821742e-02 -5.2511456345791219e-01 +5.8309204625659038e-03
4.6499999999999897e+00 +8.5264024704301793e+00 +0.0000000000000000e+00 +4.6499999488006196e+00 -2.7838989705913190e-02 -5.2514281400888962e-01 +5.8291154626832929e-03
4.6999999999999904e+00 +8.5263895464995603e+00 +0.0000000000000000e+00 +4.6999999471303298e+00 -2.7839455420738488e-02 -5.2517128013578818e-01 +5.8273156565511091e-03
4.7499999999999902e+00 +8.5263764842602505e+00 +0.0000000000000000e+00 +4.7499999454240900e+00 -2.7839937409751794e-02 -5.2519995912239925e-01 +5.8255210954516624e-03
4.7999999999999901e+00 +8.5263632837050007e+00 +0.0000000000000000e+00 +4.7999999436815299e+00 -2.7840435420414492e-02 -5.2522884825261285e-01 +5.8237318306690791e-03
4.8499999999999899e+00 +8.5263499448447000e+00 +0.0000000000000000e+00 +4.8499999419022597e+00 -2.7840949200182374e-02 -5.2525794481018728e-01 +5.8219479134863006e-03
4.8999999999999897e+00 +8.5263364676684397e+00 +0.0000000000000000e+00 +4.8999999400859000e+00 -2.7841478496521372e-02 -5.2528724607903066e-01 +5.8201693951887516e-03
4.9499999999999904e+00 +8.5263228521798702e+00 +0.0000000000000000e+00 +4.9499999382320699e+00 -2.7842023056893355e-02 -5.2531674934294414e-01 +5.8183963270610128e-03
4.9999999999999902e+00 +8.5263090983826295e+00 +0.0000000000000000e+00 +4.9999999363403900e+00 -2.7842582628761867e-02 -5.2534645188572537e-01 +5.8166287603881742e-03
5.0499999999999901e+00 +8.5262952059529198e+00 +0.0000000000000000e+00 +5.0499999344103799e+00 -2.7843156959720779e-02 -5.2537635099344648e-01 +5.8148667464857206e-03
5.0999999999999899e+00 +8.5262811745706095e+00 +0.0000000000000000e+00 +5.0999999324415599e+00 -2.7843745797364396e-02 -5.2540644395214897e-01 +5.8131103366692105e-03
5.1499999999999897e+00 +8.5262670042357094e+00 +0.0000000000000000e+00 +5.1499999304335597e+00 -2.7844348889163033e-02 -5.2543672804564501e-01 +5.8113595822254296e-03
5.1999999999999904e+00 +8.5262526949518396e+00 +0.0000000000000000e+00 +5.1999999283859903e+00 -2.7844965982587427e-02 -5.2546720055771423e-01 +5.8096145344413395e-03
5.2499999999999902e+00 +8.5262382467153692e+00 +0.0000000000000000e+00 +5.2499999262984600e+00 -2.7845596825113051e-02 -5.2549785877218214e-01 +5.8078752446050919e-03
5.2999999999999901e+00 +8.5262236595299292e+00 +0.0000000000000000e+00 +5.2999999241705797e+00 -2.7846241164214407e-02 -5.2552869997281682e-01 +5.8061417640046988e-03
5.3499999999999899e+00 +8.5262089333882596e+00 +0.0000000000000000e+00 +5.3499999220019703e+00 -2.7846898747372284e-02 -5.2555972144345708e-01 +5.8044141439296979e-03
5.3999999999999897e+00 +8.5261940682976292e+00 +0.0000000000000000e+00 +5.3999999197922497e+00 -2.7847569322063705e-02 -5.2559092046783285e-01 +5.8026924356688377e-03
5.4499999999999904e+00 +8.5261790642507496e+00 +0.0000000000000000e+00 +5.4499999175410201e+00 -2.7848252635773486e-02 -5.2562229432976859e-01 +5.8009766905127279e-03
5.4999999999999902e+00 +8.5261639212585596e+00 +0.0000000000000000e+00 +5.4999999152479004e+00 -2.7848948435981326e-02 -5.2565384031295548e-01 +5.7992669597508777e-03
5.5499999999999901e+00 +8.5261486393137602e+00 +0.0000000000000000e+00 +5.5499999129125097e+00 -2.7849656470176242e-02 -5.2568555570120390e-01 +5.7975632946749827e-03
5.5999999999999899e+00 +8.5261332184127205e+00 +0.0000000000000000e+00 +5.5999999105344500e+00 -2.7850376485847966e-02 -5.2571743777829083e-01 +5.7958657465769824e-03
5.6499999999999897e+00 +8.5261176585627307e+00 +0.0000000000000000e+00 +5.6499999081133403e+00 -2.7851108230484100e-02 -5.2574948382790920e-01 +5.7941743667483652e-03
5.6999999999999904e+00 +8.5261019597637606e+00 +0.0000000000000000e+00 +5.6999999056488004e+00 -2.7851851451577394e-02 -5.2578169113379514e-01 +5.7924892064818564e-03
5.7499999999999902e+00 +8.5260861220122006e+00 +0.0000000000000000e+00 +5.7499999031404396e+00 -2.7852605896624281e-02 -5.2581405697970052e-01 +5.7908103170710729e-03
5.7999999999999901e+00 +8.5260701453080401e+00 +0.0000000000000000e+00 +5.7999999005878804e+00 -2.7853371313122106e-02 -5.2584657864934348e-01 +5.7891377498098754e-03
5.8499999999999899e+00 +8.5260540296512808e+00 +0.0000000000000000e+00 +5.8499998979907204e+00 -2.7854147448570558e-02 -5.2587925342643382e-01 +5.7874715559927022e-03
5.8999999999999897e+00 +8.5260377750455500e+00 +0.0000000000000000e+00 +5.8999998953485804e+00 -2.7854934050470296e-02 -5.2591207859464539e-01 +5.7858117869142517e-03
