# multipoles
# s[mm] polynom_b[n=0][T/m^n] polynom_b[n=1][T/m^n] polynom_b[n=2][T/m^n] polynom_b[n=3][T/m^n] polynom_b[n=4][T/m^n] polynom_b[n=5][T/m^n] polynom_b[n=6][T/m^n] 
+0.0000000000000000e+00 -5.4965624724414652e-01 +7.1955602402219707e+00 +5.3313966823094452e+00 -7.3253770998323958e+01 +9.7794557175024074e+03 +5.8421947954988929e+04 -3.7802495614782602e+07 
+5.0000000000000003e-02 -5.4965530004016383e-01 +7.1955458994830401e+00 +5.3338611746968665e+00 -7.3140374190989590e+01 +9.7236770454321013e+03 +5.7324106631623421e+04 -3.7465335028678596e+07 
+1.0000000000000001e-01 -5.4965475530735708e-01 +7.1955532012673151e+00 +5.3360066511656719e+00 -7.3027461263425934e+01 +9.6626559988285971e+03 +5.6292039661699149e+04 -3.7095040608229630e+07 
+1.5000000000000002e-01 -5.4965461227041179e-01 +7.1955821159894029e+00 +5.3378324882838895e+00 -7.2915320434710097e+01 +9.5965370087824485e+03 +5.5325768987502939e+04 -3.6692684044975862e+07 
+2.0000000000000001e-01 -5.4965487015402659e-01 +7.1956326140596039e+00 +5.3393380628542797e+00 -7.2804239694853763e+01 +9.5254644914447090e+03 +5.4425314579176164e+04 -3.6259336901956953e+07 
+2.5000000000000000e-01 -5.4965552818294994e-01 +7.1957046658897506e+00 +5.3405227564841056e+00 -7.2694507088176579e+01 +9.4495827359907416e+03 +5.3590696951772094e+04 -3.5796069891755112e+07 
+2.9999999999999999e-01 -5.4965658558190100e-01 +7.1957982418935948e+00 +5.3413859429206267e+00 -7.2586410688485174e+01 +9.3690362409783393e+03 +5.2821936780192424e+04 -3.5303955135417588e+07 
+3.4999999999999998e-01 -5.4965804157566689e-01 +7.1959133124826380e+00 +5.3419270039617919e+00 -7.2480238449321064e+01 +9.2839692944762319e+03 +5.2119053780856870e+04 -3.4784063359243117e+07 
+3.9999999999999997e-01 -5.4965989538901339e-01 +7.1960498480729997e+00 +5.3421453150048599e+00 -7.2376278484841066e+01 +9.1945263485653013e+03 +5.1482068981680939e+04 -3.4237466362850606e+07 
+4.4999999999999996e-01 -5.4966214624675680e-01 +7.1962078190794658e+00 +5.3420402567265182e+00 -7.2274818823319734e+01 +9.1008517202732673e+03 +5.0911002717441872e+04 -3.3665235066875435e+07 
+4.9999999999999994e-01 -5.4966479337370588e-01 +7.1963871959147463e+00 +5.3416112054207927e+00 -7.2176147370891513e+01 +9.0030898408094108e+03 +5.0405874287460880e+04 -3.3068441145469572e+07 
+5.4999999999999993e-01 -5.4966783599470104e-01 +7.1965879489964673e+00 +5.3408575401481322e+00 -7.2080552217395024e+01 +8.9013850638539534e+03 +4.9966704552718227e+04 -3.2448155741035916e+07 
+5.9999999999999998e-01 -5.4967127333459564e-01 +7.1968100487385165e+00 +5.3397786384129633e+00 -7.1988321264850057e+01 +8.7958817919465455e+03 +4.9593512810097935e+04 -3.1805450353252105e+07 
+6.5000000000000002e-01 -5.4967510461827374e-01 +7.1970534655601961e+00 +5.3383738801814840e+00 -7.1899742606180439e+01 +8.6867243568222675e+03 +4.9286319922612660e+04 -3.1141395985482614e+07 
+7.0000000000000007e-01 -5.4967932907061279e-01 +7.1973181698770956e+00 +5.3366426411487975e+00 -7.1815104163510284e+01 +8.5740572074406537e+03 +4.9045145393044499e+04 -3.0457064443715483e+07 
+7.5000000000000011e-01 -5.4968394591653857e-01 +7.1976041321080322e+00 +5.3345843025633348e+00 -7.1734693949980766e+01 +8.4580246408189741e+03 +4.8870009424301010e+04 -2.9753526500140969e+07 
+8.0000000000000016e-01 -5.4968895438096721e-01 +7.1979113226700111e+00 +5.3321982402346801e+00 -7.1658799893706600e+01 +8.3387711030290702e+03 +4.8760931597738461e+04 -2.9031853940189950e+07 
+8.5000000000000020e-01 -5.4969435368884689e-01 +7.1982397119813184e+00 +5.3294838329421079e+00 -7.1587709938051091e+01 +8.2164409599975388e+03 +4.8717931578560121e+04 -2.8293118011083454e+07 
+9.0000000000000024e-01 -5.4970014306515391e-01 +7.1985892704625396e+00 +5.3264404611586196e+00 -7.1521712097012227e+01 +8.0911785314059780e+03 +4.8741029641268957e+04 -2.7538389645815857e+07 
+9.5000000000000029e-01 -5.4970632173485967e-01 +7.1989599685319368e+00 +5.3230675012667872e+00 -7.1461094272374922e+01 +7.9631282487694443e+03 +4.8830245179601938e+04 -2.6768740538514350e+07 
+1.0000000000000002e+00 -5.4971288892297310e-01 +7.1993517766092001e+00 +5.3193643332432163e+00 -7.1406144395226931e+01 +7.8324344453258373e+03 +4.8985597823306853e+04 -2.5985241713163402e+07 
+1.0500000000000003e+00 -5.4971984385450667e-01 +7.1997646651194476e+00 +5.3153303346091585e+00 -7.1357150593581196e+01 +7.6992415215522742e+03 +4.9207108833576174e+04 -2.5188964654158477e+07 
+1.1000000000000003e+00 -5.4972718575450097e-01 +7.2001986044781283e+00 +5.3109648844676975e+00 -7.1314400577244271e+01 +7.5636938370599055e+03 +4.9494796056663559e+04 -2.4380980574553691e+07 
+1.1500000000000004e+00 -5.4973491384800710e-01 +7.2006535651094632e+00 +5.3062673608615514e+00 -7.1278182393331619e+01 +7.4259357812954668e+03 +4.9848680128855398e+04 -2.3562360896452036e+07 
+1.2000000000000004e+00 -5.4974302736010017e-01 +7.2011295174355583e+00 +5.3012371430607841e+00 -7.1248783985821774e+01 +7.2861117045036881e+03 +5.0268780886280751e+04 -2.2734176748594694e+07 
+1.2500000000000004e+00 -5.4975152551586670e-01 +7.2016264318777043e+00 +5.2958736091607301e+00 -7.1226493236102399e+01 +7.1443659980626035e+03 +5.0755117637638570e+04 -2.1897499581241567e+07 
+1.3000000000000005e+00 -5.4976040754041466e-01 +7.2021442788605272e+00 +5.2901761378579613e+00 -7.1211598148647198e+01 +7.0008430324563933e+03 +5.1307710761418268e+04 -2.1053400677774638e+07 
+1.3500000000000005e+00 -5.4976967265886478e-01 +7.2026830288058354e+00 +5.2841441070706727e+00 -7.1204386581533498e+01 +6.8556872012509939e+03 +5.1926579408053549e+04 -2.0202951488856968e+07 
+1.4000000000000006e+00 -5.4977932009637021e-01 +7.2032426521390844e+00 +5.2777768974810044e+00 -7.1205146545053864e+01 +6.7090428236036814e+03 +5.2611744104961574e+04 -1.9347222962640062e+07 
+1.4500000000000006e+00 -5.4978934907808652e-01 +7.2038231192839177e+00 +5.2710738869196261e+00 -7.1214165930520593e+01 +6.5610542982612487e+03 +5.3363224316355750e+04 -1.8487286592820536e+07 
+1.5000000000000007e+00 -5.4979975882918530e-01 +7.2044244006648794e+00 +5.2640344533637053e+00 -7.1231732660345386e+01 +6.4118660171295824e+03 +5.4181039850871799e+04 -1.7624213816492174e+07 
+1.5500000000000007e+00 -5.4981054857487299e-01 +7.2050464667076461e+00 +5.2566579774562259e+00 -7.1258134684172958e+01 +6.2616223041607227e+03 +5.5065210756479275e+04 -1.6759075625206893e+07 
+1.6000000000000008e+00 -5.4982171754034814e-01 +7.2056892878365426e+00 +5.2489438358651963e+00 -7.1293659890827001e+01 +6.1104675893269578e+03 +5.6015756673730000e+04 -1.5892943722172651e+07 
+1.6500000000000008e+00 -5.4983326495085327e-01 +7.2063528344799721e+00 +5.2408914092762879e+00 -7.1338596302556809e+01 +5.9585461997391249e+03 +5.7032698297120463e+04 -1.5026889135070657e+07 
+1.7000000000000008e+00 -5.4984519003162513e-01 +7.2070370770618828e+00 +5.2325000753331690e+00 -7.1393231744557113e+01 +5.8060025375838595e+03 +5.8116054742673725e+04 -1.4161983371780569e+07 
+1.7500000000000009e+00 -5.4985749200793099e-01 +7.2077419860123157e+00 +5.2237692132887208e+00 -7.1457854290269353e+01 +5.6529809692340996e+03 +5.9265847260178423e+04 -1.3299297725751538e+07 
+1.8000000000000009e+00 -5.4987017010505224e-01 +7.2084675317551632e+00 +5.2146982020323183e+00 -7.1532751731369856e+01 +5.4996258694433518e+03 +6.0482094768594812e+04 -1.2439903539407637e+07 
+1.8500000000000010e+00 -5.4988322354829555e-01 +7.2092136847193897e+00 +5.2052864220322199e+00 -7.1618212062391635e+01 +5.3460815725164894e+03 +6.1764817921746246e+04 -1.1584871890307911e+07 
+1.9000000000000010e+00 -5.4989665156296219e-01 +7.2099804153337459e+00 +5.1955332500544147e+00 -7.1714523261544912e+01 +5.1924925103356063e+03 +6.3114037307411047e+04 -1.0735274505011942e+07 
+1.9500000000000011e+00 -5.4991045337439881e-01 +7.2107676940275187e+00 +5.1854380671928704e+00 -7.1821973295013052e+01 +5.0390030045237982e+03 +6.4529773375262906e+04 -9.8921823862633817e+06 
+2.0000000000000009e+00 -5.4992462820794008e-01 +7.2115754912275145e+00 +5.1750002502732491e+00 -7.1940850035746593e+01 +4.8857574880283246e+03 +6.6012045938606316e+04 -9.0566672756139003e+06 
+2.0500000000000007e+00 -5.4993917506523826e-01 +7.2124037447027574e+00 +5.1642183418183860e+00 -7.2071144577855691e+01 +4.7329038857550695e+03 +6.7559502628808594e+04 -8.2297433726301454e+06 
+2.1000000000000005e+00 -5.4995409205304024e-01 +7.2132522554938632e+00 +5.1530884126602832e+00 -7.2211627610442619e+01 +4.5805966147031004e+03 +6.9164950662151881e+04 -7.4121604344440568e+06 
+2.1500000000000004e+00 -5.4996937705438875e-01 +7.2141207889467962e+00 +5.1416061490063463e+00 -7.2360758075908123e+01 +4.4289896176371358e+03 +7.0819657581694730e+04 -6.6045918181888359e+06 
+2.2000000000000002e+00 -5.4998502795232851e-01 +7.2150091104031739e+00 +5.1297672352863577e+00 -7.2516994734791325e+01 +4.2782368826697120e+03 +7.2514889459051978e+04 -5.8077111742377654e+06 
+2.2500000000000000e+00 -5.5000104262992944e-01 +7.2159169852056477e+00 +5.1175673581794534e+00 -7.2678796355929549e+01 +4.1284923364450069e+03 +7.4241912342573080e+04 -5.0221917341304626e+06 
+2.2999999999999998e+00 -5.5001741897025724e-01 +7.2168441786980049e+00 +5.1050022018926740e+00 -7.2844621754497268e+01 +3.9799099692908408e+03 +7.5991992713854925e+04 -4.2487071534860134e+06 
+2.3499999999999996e+00 -5.5003415485639406e-01 +7.2177904562261794e+00 +5.0920674507415615e+00 -7.3012929807393064e+01 +3.8326437722012297e+03 +7.7756397514467957e+04 -3.4879311031936128e+06 
+2.3999999999999995e+00 -5.5005124817143969e-01 +7.2187555831345653e+00 +5.0787587908947600e+00 -7.3182179327806907e+01 +3.6868476786953297e+03 +7.9526393194571734e+04 -2.7405368401757358e+06 
+2.4499999999999993e+00 -5.5006869679849102e-01 +7.2197393247685699e+00 +5.0650719058024567e+00 -7.3350829146202344e+01 +3.5426756967290744e+03 +8.1293246303056454e+04 -2.0071981306820689e+06 
+2.4999999999999991e+00 -5.5008649862067338e-01 +7.2207414464776134e+00 +5.0510024820154218e+00 -7.3517338245590366e+01 +3.4002817491474211e+03 +8.3048224629217002e+04 -1.2885881611644162e+06 
+2.5499999999999989e+00 -5.5010465152109533e-01 +7.2217617136069441e+00 +5.0365462013030022e+00 -7.3680165419193912e+01 +3.2598198857625825e+03 +8.4782594361031210e+04 -5.8538096896513156e+05 
+2.5999999999999988e+00 -5.5012315338289719e-01 +7.2227998915059173e+00 +5.0216987494895564e+00 -7.3837769632799876e+01 +3.1214440432928332e+03 +8.6487623168362261e+04 +1.0175018453160483e+05 
+2.6499999999999986e+00 -5.5014200208921793e-01 +7.2238557455243750e+00 +5.0064558100044305e+00 -7.3988609838309372e+01 +2.9853082238437078e+03 +8.8154578500217467e+04 +7.7213159140087373e+05 
+2.6999999999999984e+00 -5.5016119552320142e-01 +7.2249290410098759e+00 +4.9908130659475276e+00 -7.4131144891639337e+01 +2.8515664337379180e+03 +8.9774727029793037e+04 +1.4250895312129944e+06 
+2.7499999999999982e+00 -5.5018073156801783e-01 +7.2260195433140479e+00 +4.9747662029760376e+00 -7.4263833801289493e+01 +2.7203726106791132e+03 +9.1339336655782885e+04 +2.0599507443425939e+06 
+2.7999999999999980e+00 -5.5020060810681737e-01 +7.2271270177896225e+00 +4.9583109019819638e+00 -7.4385135608115263e+01 +2.5918808145210792e+03 +9.2839675528167500e+04 +2.6760411699585626e+06 
+2.8499999999999979e+00 -5.5022082302276909e-01 +7.2282512297883947e+00 +4.9414428455463044e+00 -7.4493509305582549e+01 +2.4662450622637471e+03 +9.4267011373218833e+04 +3.2726870200918978e+06 
+2.8999999999999977e+00 -5.5024137419907104e-01 +7.2293919446616979e+00 +4.9241577200106335e+00 -7.4587413851878139e+01 +2.3436192605312535e+03 +9.5612611596831775e+04 +3.8492152898380859e+06 
+2.9499999999999975e+00 -5.5026225951889363e-01 +7.2305489277654358e+00 +4.9064512049612832e+00 -7.4665308380043228e+01 +2.2241575039666864e+03 +9.6867744992404740e+04 +4.4049516759119565e+06 
+2.9999999999999973e+00 -5.5028347686542656e-01 +7.2317219444531897e+00 +4.8883189825371653e+00 -7.4725651926106764e+01 +2.1080138080566212e+03 +9.8023679576287424e+04 +4.9392224496082524e+06 
+3.0499999999999972e+00 -5.5030502412187954e-01 +7.2329107600810669e+00 +4.8697567370602597e+00 -7.4766903610122228e+01 +1.9953421293524555e+03 +9.9071683975227017e+04 +5.4513542742737811e+06 
+3.0999999999999970e+00 -5.5032689917145117e-01 +7.2341151400054251e+00 +4.8507601491785808e+00 -7.4787522557204014e+01 +1.8862965213399455e+03 +1.0000302685274435e+05 +5.9406731707694195e+06 
+3.1499999999999968e+00 -5.5034909989734826e-01 +7.2353348495819398e+00 +4.8313249001290970e+00 -7.4785967844180448e+01 +1.7810310181653745e+03 +1.0080897639361629e+05 +6.4065052950669117e+06 
+3.1999999999999966e+00 -5.5037162418277696e-01 +7.2365696541722935e+00 +4.8114466697378155e+00 -7.4760698797317673e+01 +1.6796996877750923e+03 +1.0148080284972985e+05 +6.8481765940778721e+06 
+3.2499999999999964e+00 -5.5039446991097585e-01 +7.2378193191316509e+00 +4.7911211426213294e+00 -7.4710174459240392e+01 +1.5824564672243303e+03 +1.0200977406684800e+05 +7.2650138962981245e+06 
+3.2999999999999963e+00 -5.5041763496514973e-01 +7.2390836098226670e+00 +4.7703439959910536e+00 -7.4632854169596754e+01 +1.4894554888952168e+03 +1.0238716030126796e+05 +7.6563427320516976e+06 
+3.3499999999999961e+00 -5.5044111722852795e-01 +7.2403622916054200e+00 +4.7491109106621003e+00 -7.4527197156015035e+01 +1.4008507856989545e+03 +1.0260423084905451e+05 +8.0214893039057208e+06 
+3.3999999999999959e+00 -5.5046491458435298e-01 +7.2416551298416074e+00 +4.7274175687599849e+00 -7.4391662696820205e+01 +1.3167963495209940e+03 +1.0265225534096516e+05 +8.3597801153337667e+06 
+3.4499999999999957e+00 -5.5048902491584939e-01 +7.2429618898927268e+00 +4.7052596483011593e+00 -7.4224710069238242e+01 +1.2374462807585483e+03 +1.0252250343633156e+05 +8.6705409387748931e+06 
+3.4999999999999956e+00 -5.5051344610625164e-01 +7.2442823371251572e+00 +4.6826328281100214e+00 -7.4024798723553872e+01 +1.1629546559220057e+03 +1.0220624607274034e+05 +8.9530977149195522e+06 
+3.5499999999999954e+00 -5.5053817603880273e-01 +7.2456162369004735e+00 +4.6595327878793471e+00 -7.3790387910110013e+01 +1.0934755201383573e+03 +1.0169475252531361e+05 +9.2067766240145769e+06 
+3.5999999999999952e+00 -5.5056321259674212e-01 +7.2469633545864616e+00 +4.6359552055942110e+00 -7.3519937138834081e+01 +1.0291629664815034e+03 +1.0097929420074985e+05 +9.4309035115995090e+06 
+3.6499999999999950e+00 -5.5058855366332038e-01 +7.2483234555489862e+00 +4.6118957608535167e+00 -7.3211905819927296e+01 +9.7017103482092750e+02 +1.0005114157352135e+05 +9.6248046167004462e+06 
+3.6999999999999948e+00 -5.5061419712177484e-01 +7.2496963051547141e+00 +4.5873501298578558e+00 -7.2864753390971799e+01 +9.1665385605266408e+02 +9.8901565297015812e+04 +9.7878055645985827e+06 
+3.7499999999999947e+00 -5.5064014085536594e-01 +7.2510816687737396e+00 +4.5623139927337917e+00 -7.2476939429013157e+01 +8.6876544984049281e+02 +9.7521837138108705e+04 +9.9192327440742664e+06 
+3.7999999999999945e+00 -5.5066638274731516e-01 +7.2524793117732891e+00 +4.5367830218426484e+00 -7.2046923380988900e+01 +8.2666003915231408e+02 +9.5903227715734756e+04 +1.0018411197495395e+07 
+3.8499999999999943e+00 -5.5069292068089437e-01 +7.2538889995268816e+00 +4.5107528978548332e+00 -7.1573164951500175e+01 +7.9049162427299734e+02 +9.4037009722472518e+04 +1.0084667455650724e+07 
+3.8999999999999941e+00 -5.5071975253935213e-01 +7.2553104974044844e+00 +4.4842192971056001e+00 -7.1054123683771039e+01 +7.6041431107487108e+02 +9.1914454428908008e+04 +1.0117327381344916e+07 
+3.9499999999999940e+00 -5.5074687620592455e-01 +7.2567435707781147e+00 +4.4571778932024664e+00 -7.0488259208962873e+01 +7.3658227820516777e+02 +8.9526833801232293e+04 +1.0115716343111394e+07 
+3.9999999999999938e+00 -5.5077428956387153e-01 +7.2581879850229258e+00 +4.4296243637320014e+00 -6.9874031265474358e+01 +7.1914959219986565e+02 +8.6865420614022922e+04 +1.0079160485250808e+07 
+4.0499999999999936e+00 -5.5080199035970445e-01 +7.2596435279185645e+00 +4.4015587966209528e+00 -6.9210508359253055e+01 +7.0817687086309672e+02 +8.3924934432865193e+04 +1.0007487756675130e+07 
+4.0999999999999934e+00 -5.5082997579432147e-01 +7.2611100672693532e+00 +4.3729980766033973e+00 -6.8499217110034508e+01 +7.0337542637698743e+02 +8.0714340459700485e+04 +9.9024029753896985e+06 
+4.1499999999999932e+00 -5.5085824293257502e-01 +7.2625874885366688e+00 +4.3439631101520648e+00 -6.7742305527791245e+01 +7.0437535724721749e+02 +7.7246274355652786e+04 +9.7660467929000761e+06 
+4.1999999999999931e+00 -5.5088678883929221e-01 +7.2640756771763009e+00 +4.3144747984906511e+00 -6.6941921417488956e+01 +7.1080691005232848e+02 +7.3533370084261041e+04 +9.6005588451951090e+06 
+4.2499999999999929e+00 -5.5091561057933514e-01 +7.2655745186480365e+00 +4.2845540487287277e+00 -6.6100212730720855e+01 +7.2230017204599892e+02 +6.9588262741926257e+04 +9.4080798497572541e+06 
+4.2999999999999927e+00 -5.5094470521755712e-01 +7.2670838984039463e+00 +4.2542217656630861e+00 -6.5219327121941873e+01 +7.3848529693991736e+02 +6.5423585061696620e+04 +9.1907500620077588e+06 
+4.3499999999999925e+00 -5.5097406981881802e-01 +7.2686037019014460e+00 +4.2234988551202077e+00 -6.4301412458793664e+01 +7.5899241239814864e+02 +6.1051971499780782e+04 +8.9507099048497397e+06 
+4.3999999999999924e+00 -5.5100370144797262e-01 +7.2701338145954288e+00 +4.1924062210990600e+00 -6.3348616503892941e+01 +7.8345170040197797e+02 +5.6486055641059538e+04 +8.6900994218660891e+06 
+4.4499999999999922e+00 -5.5103359716989475e-01 +7.2716741219392489e+00 +4.1609647716365217e+00 -6.2363086973263840e+01 +8.1149322919178474e+02 +5.1738470743138474e+04 +8.4110594401252605e+06 
+4.4999999999999920e+00 -5.5106375404944996e-01 +7.2732245093823131e+00 +4.1291954113430025e+00 -6.1346971412322191e+01 +8.4274717541942584e+02 +4.6821848623912359e+04 +8.1157300000692243e+06 
+4.5499999999999918e+00 -5.5109416915153031e-01 +7.2747848623788354e+00 +4.0971190508802309e+00 -6.0302417573479630e+01 +8.7684354162597162e+02 +4.1748822828645352e+04 +7.8062523592153136e+06 
+4.5999999999999917e+00 -5.5112483954098890e-01 +7.2763550663767322e+00 +4.0647565928010359e+00 -5.9231572951580603e+01 +9.1341255909902486e+02 +3.6532024789223462e+04 +7.4847661947324444e+06 
+4.6499999999999915e+00 -5.5115576228272090e-01 +7.2779350068236708e+00 +4.0321289470642414e+00 -5.8136585043421519e+01 +9.5208426374983458e+02 +3.1184085982211182e+04 +7.1534124879421312e+06 
+4.6999999999999913e+00 -5.5118693444161115e-01 +7.2795245691703636e+00 +3.9992570216633827e+00 -5.7019601474054149e+01 +9.9248874596514099e+02 +2.5717638946036343e+04 +6.8143318493685676e+06 
+4.7499999999999911e+00 -5.5121835308254574e-01 +7.2811236388606524e+00 +3.9661617248859247e+00 -5.5882769588773229e+01 +1.0342560878861520e+03 +2.0145313910642933e+04 +6.4696649513581004e+06 
+4.7999999999999909e+00 -5.5125001527042294e-01 +7.2827321013395183e+00 +3.9328639666381089e+00 -5.4728236787369688e+01 +1.0770163375209497e+03 +1.4479741573069263e+04 +6.1215526598628694e+06 
+4.8499999999999908e+00 -5.5128191807012539e-01 +7.2843498420514763e+00 +3.8993846546161359e+00 -5.3558150463478476e+01 +1.1203996022646993e+03 +8.7335526196523988e+03 +5.7721354425617950e+06 
+4.8999999999999906e+00 -5.5131405854655469e-01 +7.2859767464376874e+00 +3.8657446990116018e+00 -5.2374657869437364e+01 +1.1640359285580880e+03 +2.9193765305657926e+03 +5.4235541621366367e+06 
+4.9499999999999904e+00 -5.5134643376461234e-01 +7.2876126999380899e+00 +3.8319650109123820e+00 -5.1179906231093312e+01 +1.2075553392400957e+03 -2.9501573354165348e+03 +5.0779498353274344e+06 
+4.9999999999999902e+00 -5.5137904078919653e-01 +7.2892575879933190e+00 +3.7980665000432885e+00 -4.9976042793666011e+01 +1.2505879018612204e+03 -8.8624195365350879e+03 +4.7374631545188418e+06 
+5.0499999999999901e+00 -5.5141187668521985e-01 +7.2909112960369695e+00 +3.7640700797918347e+00 -4.8765214535534348e+01 +1.2927635828136670e+03 -1.4804782743899917e+04 +4.4042355037355619e+06 
