# field on trajectory
# s[mm] rx[mm] ry[mm] rz[mm] bx[T] by[T] bz[T]
0.0000000000000000e+00 +8.5980000000000008e+00 +0.0000000000000000e+00 +0.0000000000000000e+00 -2.8683444632332120e-02 -5.2280225402426372e-01 +5.3073194994078428e-03
5.0000000000000003e-02 +8.5979999310322981e+00 +0.0000000000000000e+00 +4.9999999999936581e-02 -2.8683078986302259e-02 -5.2280072535940281e-01 +5.3040868938146269e-03
1.0000000000000001e-01 +8.5979997241294424e+00 +0.0000000000000000e+00 +9.9999999999492648e-02 -2.8682736651973188e-02 -5.2279956658901139e-01 +5.3008492615937040e-03
1.5000000000000002e-01 +8.5979993792917391e+00 +0.0000000000000000e+00 +1.4999999999828767e-01 -2.8682417733623754e-02 -5.2279877695294896e-01 +5.2976069004734682e-03
2.0000000000000001e-01 +8.5979988965193961e+00 +0.0000000000000000e+00 +1.9999999999594115e-01 -2.8682122335533317e-02 -5.2279835569109323e-01 +5.2943601081820229e-03
2.5000000000000000e-01 +8.5979982758125253e+00 +0.0000000000000000e+00 +2.4999999999207251e-01 -2.8681850561981914e-02 -5.2279830204333799e-01 +5.2911091824472045e-03
2.9999999999999999e-01 +8.5979975171711391e+00 +0.0000000000000000e+00 +2.9999999998630128e-01 -2.8681602517250247e-02 -5.2279861524959492e-01 +5.2878544209966297e-03
3.4999999999999998e-01 +8.5979966205951577e+00 +0.0000000000000000e+00 +3.4999999997824693e-01 -2.8681378305619735e-02 -5.2279929454979257e-01 +5.2845961215577178e-03
3.9999999999999997e-01 +8.5979955860843997e+00 +0.0000000000000000e+00 +3.9999999996752900e-01 -2.8681178031372576e-02 -5.2280033918387625e-01 +5.2813345818577325e-03
4.4999999999999996e-01 +8.5979944136385900e+00 +0.0000000000000000e+00 +4.4999999995376688e-01 -2.8681001798791749e-02 -5.2280174839180815e-01 +5.2780700996238111e-03
4.9999999999999994e-01 +8.5979931032573571e+00 +0.0000000000000000e+00 +4.9999999993658006e-01 -2.8680849712161127e-02 -5.2280352141356778e-01 +5.2748029725829919e-03
5.4999999999999993e-01 +8.5979916549402340e+00 +0.0000000000000000e+00 +5.4999999991558801e-01 -2.8680721875765435e-02 -5.2280565748915031e-01 +5.2715334984622707e-03
5.9999999999999998e-01 +8.5979900686866557e+00 +0.0000000000000000e+00 +5.9999999989041020e-01 -2.8680618393890373e-02 -5.2280815585856877e-01 +5.2682619749886087e-03
6.5000000000000002e-01 +8.5979883444959651e+00 +0.0000000000000000e+00 +6.4999999986066603e-01 -2.8680539370822600e-02 -5.2281101576185252e-01 +5.2649886998889740e-03
7.0000000000000007e-01 +8.5979864823674053e+00 +0.0000000000000000e+00 +6.9999999982597494e-01 -2.8680484910849839e-02 -5.2281423643904656e-01 +5.2617139708903884e-03
7.5000000000000011e-01 +8.5979844823001290e+00 +0.0000000000000000e+00 +7.4999999978595644e-01 -2.8680455118260818e-02 -5.2281781713021303e-01 +5.2584380857199362e-03
8.0000000000000016e-01 +8.5979823442931895e+00 +0.0000000000000000e+00 +7.9999999974022984e-01 -2.8680450097345465e-02 -5.2282175707543044e-01 +5.2551613421048310e-03
8.5000000000000020e-01 +8.5979800683455476e+00 +0.0000000000000000e+00 +8.4999999968841466e-01 -2.8680469952394799e-02 -5.2282605551479389e-01 +5.2518840377724120e-03
9.0000000000000024e-01 +8.5979776544560700e+00 +0.0000000000000000e+00 +8.9999999963013022e-01 -2.8680514787701061e-02 -5.2283071168841333e-01 +5.2486064704502094e-03
9.5000000000000029e-01 +8.5979751026235274e+00 +0.0000000000000000e+00 +9.4999999956499592e-01 -2.8680584707557775e-02 -5.2283572483641649e-01 +5.2453289378659607e-03
1.0000000000000002e+00 +8.5979724128465982e+00 +0.0000000000000000e+00 +9.9999999949263108e-01 -2.8680679816259717e-02 -5.2284109419894653e-01 +5.2420517377476487e-03
1.0500000000000003e+00 +8.5979695851238649e+00 +0.0000000000000000e+00 +1.0499999994126550e+00 -2.8680800218102997e-02 -5.2284681901616226e-01 +5.2387751678235339e-03
1.1000000000000003e+00 +8.5979666194538176e+00 +0.0000000000000000e+00 +1.0999999993246872e+00 -2.8680946017385127e-02 -5.2285289852823880e-01 +5.2354995258221976e-03
1.1500000000000004e+00 +8.5979635158348522e+00 +0.0000000000000000e+00 +1.1499999992283467e+00 -2.8681117318405006e-02 -5.2285933197536694e-01 +5.2322251094725561e-03
1.2000000000000004e+00 +8.5979602742652723e+00 +0.0000000000000000e+00 +1.1999999991232531e+00 -2.8681314225463050e-02 -5.2286611859775334e-01 +5.2289522165039140e-03
1.2500000000000004e+00 +8.5979568947432856e+00 +0.0000000000000000e+00 +1.2499999990090256e+00 -2.8681536842861153e-02 -5.2287325763562020e-01 +5.2256811446459899e-03
1.3000000000000005e+00 +8.5979533772670091e+00 +0.0000000000000000e+00 +1.2999999988852833e+00 -2.8681785274902758e-02 -5.2288074832920572e-01 +5.2224121916289463e-03
1.3500000000000005e+00 +8.5979497218344676e+00 +0.0000000000000000e+00 +1.3499999987516456e+00 -2.8682059625892910e-02 -5.2288858991876330e-01 +5.2191456551834306e-03
1.4000000000000006e+00 +8.5979459284435915e+00 +0.0000000000000000e+00 +1.3999999986077316e+00 -2.8682360000138324e-02 -5.2289678164456155e-01 +5.2158818330406056e-03
1.4500000000000006e+00 +8.5979419970922191e+00 +0.0000000000000000e+00 +1.4499999984531606e+00 -2.8682686501947358e-02 -5.2290532274688495e-01 +5.2126210229321793e-03
1.5000000000000007e+00 +8.5979379277780978e+00 +0.0000000000000000e+00 +1.4999999982875516e+00 -2.8683039235630124e-02 -5.2291421246603353e-01 +5.2093635225904465e-03
1.5500000000000007e+00 +8.5979337204988813e+00 +0.0000000000000000e+00 +1.5499999981105237e+00 -2.8683418305498507e-02 -5.2292345004232199e-01 +5.2061096297483208e-03
1.6000000000000008e+00 +8.5979293752521322e+00 +0.0000000000000000e+00 +1.5999999979216961e+00 -2.8683823815866202e-02 -5.2293303471607999e-01 +5.2028596421393588e-03
1.6500000000000008e+00 +8.5979248920353228e+00 +0.0000000000000000e+00 +1.6499999977206878e+00 -2.8684255871048777e-02 -5.2294296572765342e-01 +5.1996138574978068e-03
1.7000000000000008e+00 +8.5979202708458331e+00 +0.0000000000000000e+00 +1.6999999975071181e+00 -2.8684714575363684e-02 -5.2295324231740181e-01 +5.1963725735586263e-03
1.7500000000000009e+00 +8.5979155116809505e+00 +0.0000000000000000e+00 +1.7499999972806057e+00 -2.8685200033130343e-02 -5.2296386372570103e-01 +5.1931360880575319e-03
1.8000000000000009e+00 +8.5979106145378736e+00 +0.0000000000000000e+00 +1.7999999970407699e+00 -2.8685712348670154e-02 -5.2297482919294069e-01 +5.1899046987310222e-03
1.8500000000000010e+00 +8.5979055794137089e+00 +0.0000000000000000e+00 +1.8499999967872292e+00 -2.8686251626306565e-02 -5.2298613795952553e-01 +5.1866787033164165e-03
1.9000000000000010e+00 +8.5979004063054738e+00 +0.0000000000000000e+00 +1.8999999965196028e+00 -2.8686817970365101e-02 -5.2299778926587559e-01 +5.1834583995518839e-03
1.9500000000000011e+00 +8.5978950952100934e+00 +0.0000000000000000e+00 +1.9499999962375096e+00 -2.8687411485173411e-02 -5.2300978235242490e-01 +5.1802440851764879e-03
2.0000000000000009e+00 +8.5978896461244041e+00 +0.0000000000000000e+00 +1.9999999959405685e+00 -2.8688032275061299e-02 -5.2302211645962204e-01 +5.1770360579301948e-03
2.0500000000000007e+00 +8.5978840590451515e+00 +0.0000000000000000e+00 +2.0499999956283981e+00 -2.8688680416261866e-02 -5.2303479066678604e-01 +5.1738346121428759e-03
2.1000000000000005e+00 +8.5978783339689908e+00 +0.0000000000000000e+00 +2.0999999953006174e+00 -2.8689355872614331e-02 -5.2304780340867130e-01 +5.1706400285009913e-03
2.1500000000000004e+00 +8.5978724708924901e+00 +0.0000000000000000e+00 +2.1499999949568451e+00 -2.8690058579860466e-02 -5.2306115295890010e-01 +5.1674525842806641e-03
2.2000000000000002e+00 +8.5978664698121268e+00 +0.0000000000000000e+00 +2.1999999945966997e+00 -2.8690788473743480e-02 -5.2307483759110596e-01 +5.1642725567587339e-03
2.2500000000000000e+00 +8.5978603307242896e+00 +0.0000000000000000e+00 +2.2499999942197997e+00 -2.8691545490007971e-02 -5.2308885557893514e-01 +5.1611002232127773e-03
2.2999999999999998e+00 +8.5978540536252819e+00 +0.0000000000000000e+00 +2.2999999938257640e+00 -2.8692329564399956e-02 -5.2310320519604459e-01 +5.1579358609211137e-03
2.3499999999999996e+00 +8.5978476385113165e+00 +0.0000000000000000e+00 +2.3499999934142113e+00 -2.8693140632666862e-02 -5.2311788471610310e-01 +5.1547797471628350e-03
2.3999999999999995e+00 +8.5978410853785210e+00 +0.0000000000000000e+00 +2.3999999929847600e+00 -2.8693978630557490e-02 -5.2313289241278982e-01 +5.1516321592178062e-03
2.4499999999999993e+00 +8.5978343942229358e+00 +0.0000000000000000e+00 +2.4499999925370286e+00 -2.8694843493822033e-02 -5.2314822655979532e-01 +5.1484933743666831e-03
2.4999999999999991e+00 +8.5978275650405145e+00 +0.0000000000000000e+00 +2.4999999920706353e+00 -2.8695735158212065e-02 -5.2316388543082093e-01 +5.1453636698909457e-03
2.5499999999999989e+00 +8.5978205978271269e+00 +0.0000000000000000e+00 +2.5499999915851990e+00 -2.8696653559480544e-02 -5.2317986729957811e-01 +5.1422433230728830e-03
2.5999999999999988e+00 +8.5978134925785561e+00 +0.0000000000000000e+00 +2.5999999910803377e+00 -2.8697598633381744e-02 -5.2319617043978839e-01 +5.1391326111956265e-03
2.6499999999999986e+00 +8.5978062492904996e+00 +0.0000000000000000e+00 +2.6499999905556697e+00 -2.8698570315671357e-02 -5.2321279312518409e-01 +5.1360318115431704e-03
2.6999999999999984e+00 +8.5977988679585735e+00 +0.0000000000000000e+00 +2.6999999900108134e+00 -2.8699568542106372e-02 -5.2322973362950653e-01 +5.1329412014003706e-03
2.7499999999999982e+00 +8.5977913485783084e+00 +0.0000000000000000e+00 +2.7499999894453868e+00 -2.8700593248445146e-02 -5.2324699022650734e-01 +5.1298610580529673e-03
2.7999999999999980e+00 +8.5977836911451497e+00 +0.0000000000000000e+00 +2.7999999888590081e+00 -2.8701644370447362e-02 -5.2326456118994691e-01 +5.1267916587876064e-03
2.8499999999999979e+00 +8.5977758956544630e+00 +0.0000000000000000e+00 +2.8499999882512954e+00 -2.8702721843874030e-02 -5.2328244479359520e-01 +5.1237332808918420e-03
2.8999999999999977e+00 +8.5977679621015302e+00 +0.0000000000000000e+00 +2.8999999876218667e+00 -2.8703825604487473e-02 -5.2330063931123139e-01 +5.1206862016541649e-03
2.9499999999999975e+00 +8.5977598904815498e+00 +0.0000000000000000e+00 +2.9499999869703402e+00 -2.8704955588051334e-02 -5.2331914301664284e-01 +5.1176506983640034e-03
2.9999999999999973e+00 +8.5977516807896404e+00 +0.0000000000000000e+00 +2.9999999862963338e+00 -2.8706111730330545e-02 -5.2333795418362650e-01 +5.1146270483117548e-03
3.0499999999999972e+00 +8.5977433330208388e+00 +0.0000000000000000e+00 +3.0499999855994653e+00 -2.8707293967091360e-02 -5.2335707108598639e-01 +5.1116155287887818e-03
3.0999999999999970e+00 +8.5977348471701021e+00 +0.0000000000000000e+00 +3.0999999848793527e+00 -2.8708502234101291e-02 -5.2337649199753533e-01 +5.1086164170874400e-03
3.1499999999999968e+00 +8.5977262232323053e+00 +0.0000000000000000e+00 +3.1499999841356137e+00 -2.8709736467129161e-02 -5.2339621519209467e-01 +5.1056299905010974e-03
3.1999999999999966e+00 +8.5977174612022456e+00 +0.0000000000000000e+00 +3.1999999833678663e+00 -2.8710996601945059e-02 -5.2341623894349265e-01 +5.1026565263241367e-03
3.2499999999999964e+00 +8.5977085610746400e+00 +0.0000000000000000e+00 +3.2499999825757278e+00 -2.8712282574320316e-02 -5.2343656152556561e-01 +5.0996963018519756e-03
3.2999999999999963e+00 +8.5976995228441258e+00 +0.0000000000000000e+00 +3.2999999817588157e+00 -2.8713594320027538e-02 -5.2345718121215679e-01 +5.0967495943810819e-03
3.3499999999999961e+00 +8.5976903465052636e+00 +0.0000000000000000e+00 +3.3499999809167478e+00 -2.8714931774840611e-02 -5.2347809627711694e-01 +5.0938166812089939e-03
3.3999999999999959e+00 +8.5976810320525363e+00 +0.0000000000000000e+00 +3.3999999800491416e+00 -2.8716294874534622e-02 -5.2349930499430353e-01 +5.0908978396343261e-03
3.4499999999999957e+00 +8.5976715794803464e+00 +0.0000000000000000e+00 +3.4499999791556144e+00 -2.8717683554885916e-02 -5.2352080563758074e-01 +5.0879933469567921e-03
3.4999999999999956e+00 +8.5976619887830221e+00 +0.0000000000000000e+00 +3.4999999782357838e+00 -2.8719097751672071e-02 -5.2354259648081936e-01 +5.0851034804772124e-03
3.5499999999999954e+00 +8.5976522599548151e+00 +0.0000000000000000e+00 +3.5499999772892670e+00 -2.8720537400671882e-02 -5.2356467579789645e-01 +5.0822285174975381e-03
3.5999999999999952e+00 +8.5976423929898989e+00 +0.0000000000000000e+00 +3.5999999763156811e+00 -2.8722002437665352e-02 -5.2358704186269545e-01 +5.0793687353208588e-03
3.6499999999999950e+00 +8.5976323878823742e+00 +0.0000000000000000e+00 +3.6499999753146435e+00 -2.8723492798433701e-02 -5.2360969294910498e-01 +5.0765244112514216e-03
3.6999999999999948e+00 +8.5976222446262636e+00 +0.0000000000000000e+00 +3.6999999742857712e+00 -2.8725008418759360e-02 -5.2363262733101990e-01 +5.0736958225946474e-03
3.7499999999999947e+00 +8.5976119632155150e+00 +0.0000000000000000e+00 +3.7499999732286811e+00 -2.8726549234425913e-02 -5.2365584328234038e-01 +5.0708832466571391e-03
3.7999999999999945e+00 +8.5976015436440054e+00 +0.0000000000000000e+00 +3.7999999721429907e+00 -2.8728115181218178e-02 -5.2367933907697206e-01 +5.0680869607467056e-03
3.8499999999999943e+00 +8.5975909859055353e+00 +0.0000000000000000e+00 +3.8499999710283164e+00 -2.8729706194922117e-02 -5.2370311298882499e-01 +5.0653072421723662e-03
3.8999999999999941e+00 +8.5975802899938323e+00 +0.0000000000000000e+00 +3.8999999698842753e+00 -2.8731322211324881e-02 -5.2372716329181501e-01 +5.0625443682443833e-03
3.9499999999999940e+00 +8.5975694559025495e+00 +0.0000000000000000e+00 +3.9499999687104843e+00 -2.8732963166214771e-02 -5.2375148825986195e-01 +5.0597986162742555e-03
3.9999999999999938e+00 +8.5975584836252708e+00 +0.0000000000000000e+00 +3.9999999675065596e+00 -2.8734628995381244e-02 -5.2377608616689031e-01 +5.0570702635747517e-03
4.0499999999999936e+00 +8.5975473731555070e+00 +0.0000000000000000e+00 +4.0499999662721180e+00 -2.8736319596050344e-02 -5.2380095513565417e-01 +5.0543595603811759e-03
4.0999999999999934e+00 +8.5975361244866964e+00 +0.0000000000000000e+00 +4.0999999650067762e+00 -2.8738034711189714e-02 -5.2382609268421398e-01 +5.0516666486150347e-03
4.1499999999999932e+00 +8.5975247376122059e+00 +0.0000000000000000e+00 +4.1499999637101510e+00 -2.8739774045201085e-02 -5.2385149617945737e-01 +5.0489916431204632e-03
4.1999999999999931e+00 +8.5975132125253335e+00 +0.0000000000000000e+00 +4.1999999623818587e+00 -2.8741537302484643e-02 -5.2387716298827525e-01 +5.0463346587431143e-03
4.2499999999999929e+00 +8.5975015492193076e+00 +0.0000000000000000e+00 +4.2499999610215156e+00 -2.8743324187438957e-02 -5.2390309047756067e-01 +5.0436958103301606e-03
4.2999999999999927e+00 +8.5974897476872876e+00 +0.0000000000000000e+00 +4.2999999596287379e+00 -2.8745134404460929e-02 -5.2392927601420913e-01 +5.0410752127303393e-03
4.3499999999999925e+00 +8.5974778079223650e+00 +0.0000000000000000e+00 +4.3499999582031421e+00 -2.8746967657945675e-02 -5.2395571696511722e-01 +5.0384729807939526e-03
4.3999999999999924e+00 +8.5974657299175643e+00 +0.0000000000000000e+00 +4.3999999567443444e+00 -2.8748823652286443e-02 -5.2398241069718388e-01 +5.0358892293729000e-03
4.4499999999999922e+00 +8.5974535136658421e+00 +0.0000000000000000e+00 +4.4499999552519602e+00 -2.8750702091874566e-02 -5.2400935457730979e-01 +5.0333240733206859e-03
4.4999999999999920e+00 +8.5974411591600912e+00 +0.0000000000000000e+00 +4.4999999537256059e+00 -2.8752602681099304e-02 -5.2403654597239602e-01 +5.0307776274924618e-03
4.5499999999999918e+00 +8.5974286663931352e+00 +0.0000000000000000e+00 +4.5499999521648977e+00 -2.8754525124347834e-02 -5.2406398224934514e-01 +5.0282500067450244e-03
4.5999999999999917e+00 +8.5974160353577371e+00 +0.0000000000000000e+00 +4.5999999505694511e+00 -2.8756469126005109e-02 -5.2409166077506031e-01 +5.0257413259368515e-03
4.6499999999999915e+00 +8.5974032660465944e+00 +0.0000000000000000e+00 +4.6499999489388824e+00 -2.8758434390453790e-02 -5.2411957891644523e-01 +5.0232516999281192e-03
4.6999999999999913e+00 +8.5973903584523406e+00 +0.0000000000000000e+00 +4.6999999472728069e+00 -2.8760420622074213e-02 -5.2414773404040382e-01 +5.0207812435807157e-03
4.7499999999999911e+00 +8.5973773125675486e+00 +0.0000000000000000e+00 +4.7499999455708402e+00 -2.8762427525244189e-02 -5.2417612351383980e-01 +5.0183300717582700e-03
4.7999999999999909e+00 +8.5973641283847275e+00 +0.0000000000000000e+00 +4.7999999438325975e+00 -2.8764454804339031e-02 -5.2420474470365686e-01 +5.0158982993261684e-03
4.8499999999999908e+00 +8.5973508058963262e+00 +0.0000000000000000e+00 +4.8499999420576945e+00 -2.8766502163731413e-02 -5.2423359497675848e-01 +5.0134860411515814e-03
4.8999999999999906e+00 +8.5973373450947328e+00 +0.0000000000000000e+00 +4.8999999402457464e+00 -2.8768569307791265e-02 -5.2426267170004692e-01 +5.0110934121034689e-03
4.9499999999999904e+00 +8.5973237459722753e+00 +0.0000000000000000e+00 +4.9499999383963686e+00 -2.8770655940885778e-02 -5.2429197224042401e-01 +5.0087205270526267e-03
4.9999999999999902e+00 +8.5973100085212248e+00 +0.0000000000000000e+00 +4.9999999365091767e+00 -2.8772761767379178e-02 -5.2432149396478989e-01 +5.0063675008716812e-03
5.0499999999999901e+00 +8.5972961327337920e+00 +0.0000000000000000e+00 +5.0499999345837860e+00 -2.8774886491632810e-02 -5.2435123424004393e-01 +5.0040344484351207e-03
5.0999999999999899e+00 +8.5972821186021289e+00 +0.0000000000000000e+00 +5.0999999326198111e+00 -2.8777029818004896e-02 -5.2438119043308262e-01 +5.0017214846193271e-03
5.1499999999999897e+00 +8.5972679661183342e+00 +0.0000000000000000e+00 +5.1499999306168673e+00 -2.8779191450850509e-02 -5.2441135991080257e-01 +4.9994287243025730e-03
5.1999999999999895e+00 +8.5972536752744464e+00 +0.0000000000000000e+00 +5.1999999285745693e+00 -2.8781371094521575e-02 -5.2444174004009625e-01 +4.9971562823650654e-03
5.2499999999999893e+00 +8.5972392460624505e+00 +0.0000000000000000e+00 +5.2499999264925314e+00 -2.8783568453366614e-02 -5.2447232818785472e-01 +4.9949042736889496e-03
5.2999999999999892e+00 +8.5972246784742783e+00 +0.0000000000000000e+00 +5.2999999243703693e+00 -2.8785783231730803e-02 -5.2450312172096625e-01 +4.9926728131583437e-03
5.3499999999999890e+00 +8.5972099725018030e+00 +0.0000000000000000e+00 +5.3499999222076973e+00 -2.8788015133955822e-02 -5.2453411800631677e-01 +4.9904620156593455e-03
5.3999999999999888e+00 +8.5971951281368479e+00 +0.0000000000000000e+00 +5.3999999200041300e+00 -2.8790263864379769e-02 -5.2456531441078802e-01 +4.9882719960800655e-03
5.4499999999999886e+00 +8.5971801453711816e+00 +0.0000000000000000e+00 +5.4499999177592811e+00 -2.8792529127337121e-02 -5.2459670830125971e-01 +4.9861028693106452e-03
5.4999999999999885e+00 +8.5971650241965225e+00 +0.0000000000000000e+00 +5.4999999154727659e+00 -2.8794810627158583e-02 -5.2462829704460678e-01 +4.9839547502432647e-03
5.5499999999999883e+00 +8.5971497646045361e+00 +0.0000000000000000e+00 +5.5499999131441982e+00 -2.8797108068171023e-02 -5.2466007800770131e-01 +4.9818277537721830e-03
5.5999999999999881e+00 +8.5971343665868378e+00 +0.0000000000000000e+00 +5.5999999107731924e+00 -2.8799421154697451e-02 -5.2469204855741092e-01 +4.9797219947937442e-03
5.6499999999999879e+00 +8.5971188301349919e+00 +0.0000000000000000e+00 +5.6499999083593631e+00 -2.8801749591056816e-02 -5.2472420606059877e-01 +4.9776375882064116e-03
5.6999999999999877e+00 +8.5971031552405144e+00 +0.0000000000000000e+00 +5.6999999059023239e+00 -2.8804093081564060e-02 -5.2475654788412407e-01 +4.9755746489107732e-03
5.7499999999999876e+00 +8.5970873418948717e+00 +0.0000000000000000e+00 +5.7499999034016884e+00 -2.8806451330529875e-02 -5.2478907139484055e-01 +4.9735332918095709e-03
5.7999999999999874e+00 +8.5970713900894840e+00 +0.0000000000000000e+00 +5.7999999008570713e+00 -2.8808824042260758e-02 -5.2482177395959739e-01 +4.9715136318077210e-03
5.8499999999999872e+00 +8.5970552998157235e+00 +0.0000000000000000e+00 +5.8499998982680861e+00 -2.8811210921058844e-02 -5.2485465294523870e-01 +4.9695157838123396e-03
5.8999999999999870e+00 +8.5970390710649145e+00 +0.0000000000000000e+00 +5.8999998956343465e+00 -2.8813611671221831e-02 -5.2488770571860288e-01 +4.9675398627327507e-03
