# trajectory
# s[mm] rx[mm] ry[mm] rz[mm] px[rad] py[rad] pz[rad]
0.0000000000000000e+00 +8.3650000000000002e+00 +0.0000000000000000e+00 +0.0000000000000000e+00 +0.0000000000000000e+00 +0.0000000000000000e+00 +1.0000000000000000e+00
5.0000000000000003e-02 +8.3649999311453005e+00 +0.0000000000000000e+00 +4.9999999999936789e-02 -2.7541867744545191e-06 +0.0000000000000000e+00 +9.9999999999620726e-01
1.0000000000000001e-01 +8.3649997245814305e+00 +0.0000000000000000e+00 +9.9999999999494299e-02 -5.5083671207083692e-06 +0.0000000000000000e+00 +9.9999999998482902e-01
1.5000000000000002e-01 +8.3649993803086620e+00 +0.0000000000000000e+00 +1.4999999999829328e-01 -8.2625430567760122e-06 +0.0000000000000000e+00 +9.9999999996586530e-01
2.0000000000000001e-01 +8.3649988983271655e+00 +0.0000000000000000e+00 +1.9999999999595441e-01 -1.1016716597160689e-05 +0.0000000000000000e+00 +9.9999999993931610e-01
2.5000000000000000e-01 +8.3649982786370085e+00 +0.0000000000000000e+00 +2.4999999999209846e-01 -1.3770889752854514e-05 +0.0000000000000000e+00 +9.9999999990518140e-01
2.9999999999999999e-01 +8.3649975212381626e+00 +0.0000000000000000e+00 +2.9999999998634613e-01 -1.6525064531338567e-05 +0.0000000000000000e+00 +9.9999999986346122e-01
3.4999999999999998e-01 +8.3649966261304947e+00 +0.0000000000000000e+00 +3.4999999997831815e-01 -1.9279242936582980e-05 +0.0000000000000000e+00 +9.9999999981415555e-01
3.9999999999999997e-01 +8.3649955933137754e+00 +0.0000000000000000e+00 +3.9999999996763524e-01 -2.2033426969047033e-05 +0.0000000000000000e+00 +9.9999999975726417e-01
4.4999999999999996e-01 +8.3649944227876709e+00 +0.0000000000000000e+00 +4.4999999995391815e-01 -2.4787618625679249e-05 +0.0000000000000000e+00 +9.9999999969278708e-01
4.9999999999999994e-01 +8.3649931145517513e+00 +0.0000000000000000e+00 +4.9999999993678756e-01 -2.7541819899917473e-05 +0.0000000000000000e+00 +9.9999999962072417e-01
5.4999999999999993e-01 +8.3649916686054873e+00 +0.0000000000000000e+00 +5.4999999991586412e-01 -3.0296032781688970e-05 +0.0000000000000000e+00 +9.9999999954107532e-01
5.9999999999999998e-01 +8.3649900849482464e+00 +0.0000000000000000e+00 +5.9999999989076858e-01 -3.3050259257410520e-05 +0.0000000000000000e+00 +9.9999999945384033e-01
6.5000000000000002e-01 +8.3649883635793021e+00 +0.0000000000000000e+00 +6.4999999986112167e-01 -3.5804501309988501e-05 +0.0000000000000000e+00 +9.9999999935901895e-01
7.0000000000000007e-01 +8.3649865044978231e+00 +0.0000000000000000e+00 +6.9999999982654404e-01 -3.8558760918818981e-05 +0.0000000000000000e+00 +9.9999999925661109e-01
7.5000000000000011e-01 +8.3649845077028839e+00 +0.0000000000000000e+00 +7.4999999978665632e-01 -4.1313040059787819e-05 +0.0000000000000000e+00 +9.9999999914661653e-01
8.0000000000000016e-01 +8.3649823731934578e+00 +0.0000000000000000e+00 +7.9999999974107927e-01 -4.4067340705270735e-05 +0.0000000000000000e+00 +9.9999999902903491e-01
8.5000000000000020e-01 +8.3649801009684221e+00 +0.0000000000000000e+00 +8.4999999968943341e-01 -4.6821664824133419e-05 +0.0000000000000000e+00 +9.9999999890386604e-01
9.0000000000000024e-01 +8.3649776910265530e+00 +0.0000000000000000e+00 +8.9999999963133936e-01 -4.9576014381731606e-05 +0.0000000000000000e+00 +9.9999999877110957e-01
9.5000000000000029e-01 +8.3649751433665287e+00 +0.0000000000000000e+00 +9.4999999956641790e-01 -5.2330391339911176e-05 +0.0000000000000000e+00 +9.9999999863076527e-01
1.0000000000000002e+00 +8.3649724579869300e+00 +0.0000000000000000e+00 +9.9999999949428942e-01 -5.5084797657008244e-05 +0.0000000000000000e+00 +9.9999999848283272e-01
1.0500000000000003e+00 +8.3649696348862417e+00 +0.0000000000000000e+00 +1.0499999994145746e+00 -5.7839235287849242e-05 +0.0000000000000000e+00 +9.9999999832731157e-01
1.1000000000000003e+00 +8.3649666740628472e+00 +0.0000000000000000e+00 +1.0999999993268941e+00 -6.0593706183751003e-05 +0.0000000000000000e+00 +9.9999999816420149e-01
1.1500000000000004e+00 +8.3649635755150360e+00 +0.0000000000000000e+00 +1.1499999992308683e+00 -6.3348212292520874e-05 +0.0000000000000000e+00 +9.9999999799350214e-01
1.2000000000000004e+00 +8.3649603392409979e+00 +0.0000000000000000e+00 +1.1999999991261179e+00 -6.6102755558456781e-05 +0.0000000000000000e+00 +9.9999999781521298e-01
1.2500000000000004e+00 +8.3649569652388287e+00 +0.0000000000000000e+00 +1.2499999990122632e+00 -6.8857337922347339e-05 +0.0000000000000000e+00 +9.9999999762933367e-01
1.3000000000000005e+00 +8.3649534535065229e+00 +0.0000000000000000e+00 +1.2999999988889248e+00 -7.1611961321471919e-05 +0.0000000000000000e+00 +9.9999999743586365e-01
1.3500000000000005e+00 +8.3649498040419807e+00 +0.0000000000000000e+00 +1.3499999987557232e+00 -7.4366627689600735e-05 +0.0000000000000000e+00 +9.9999999723480248e-01
1.4000000000000006e+00 +8.3649460168430050e+00 +0.0000000000000000e+00 +1.3999999986122786e+00 -7.7121338956994968e-05 +0.0000000000000000e+00 +9.9999999702614972e-01
1.4500000000000006e+00 +8.3649420919073041e+00 +0.0000000000000000e+00 +1.4499999984582117e+00 -7.9876097050406820e-05 +0.0000000000000000e+00 +9.9999999680990470e-01
1.5000000000000007e+00 +8.3649380292324871e+00 +0.0000000000000000e+00 +1.4999999982931427e+00 -8.2630903893079607e-05 +0.0000000000000000e+00 +9.9999999658606697e-01
1.5500000000000007e+00 +8.3649338288160706e+00 +0.0000000000000000e+00 +1.5499999981166919e+00 -8.5385761404747855e-05 +0.0000000000000000e+00 +9.9999999635463599e-01
1.6000000000000008e+00 +8.3649294906554719e+00 +0.0000000000000000e+00 +1.5999999979284798e+00 -8.8140671501637382e-05 +0.0000000000000000e+00 +9.9999999611561108e-01
1.6500000000000008e+00 +8.3649250147480121e+00 +0.0000000000000000e+00 +1.6499999977281266e+00 -9.0895636096465407e-05 +0.0000000000000000e+00 +9.9999999586899169e-01
1.7000000000000008e+00 +8.3649204010909219e+00 +0.0000000000000000e+00 +1.6999999975152524e+00 -9.3650657098440601e-05 +0.0000000000000000e+00 +9.9999999561477726e-01
1.7500000000000009e+00 +8.3649156496813308e+00 +0.0000000000000000e+00 +1.7499999972894777e+00 -9.6405736413263197e-05 +0.0000000000000000e+00 +9.9999999535296702e-01
1.8000000000000009e+00 +8.3649107605162776e+00 +0.0000000000000000e+00 +1.7999999970504226e+00 -9.9160875943125074e-05 +0.0000000000000000e+00 +9.9999999508356041e-01
1.8500000000000010e+00 +8.3649057335927015e+00 +0.0000000000000000e+00 +1.8499999967977072e+00 -1.0191607758670985e-04 +0.0000000000000000e+00 +9.9999999480655666e-01
1.9000000000000010e+00 +8.3649005689074514e+00 +0.0000000000000000e+00 +1.8999999965309518e+00 -1.0467134323919294e-04 +0.0000000000000000e+00 +9.9999999452195509e-01
1.9500000000000011e+00 +8.3648952664572800e+00 +0.0000000000000000e+00 +1.9499999962497763e+00 -1.0742667479224171e-04 +0.0000000000000000e+00 +9.9999999422975494e-01
2.0000000000000009e+00 +8.3648898262388425e+00 +0.0000000000000000e+00 +1.9999999959538006e+00 -1.1018207413401548e-04 +0.0000000000000000e+00 +9.9999999392995542e-01
2.0500000000000007e+00 +8.3648842482487051e+00 +0.0000000000000000e+00 +2.0499999956426449e+00 -1.1293754314883656e-04 +0.0000000000000000e+00 +9.9999999362255587e-01
2.1000000000000005e+00 +8.3648785324833348e+00 +0.0000000000000000e+00 +2.0999999953159292e+00 -1.1569308371357026e-04 +0.0000000000000000e+00 +9.9999999330755540e-01
2.1500000000000004e+00 +8.3648726789391095e+00 +0.0000000000000000e+00 +2.1499999949732738e+00 -1.1844869769400491e-04 +0.0000000000000000e+00 +9.9999999298495323e-01
2.2000000000000002e+00 +8.3648666876123112e+00 +0.0000000000000000e+00 +2.1999999946142981e+00 -1.2120438694452276e-04 +0.0000000000000000e+00 +9.9999999265474848e-01
2.2500000000000000e+00 +8.3648605584991298e+00 +0.0000000000000000e+00 +2.2499999942386220e+00 -1.2396015330810010e-04 +0.0000000000000000e+00 +9.9999999231694037e-01
2.2999999999999998e+00 +8.3648542915956643e+00 +0.0000000000000000e+00 +2.2999999938458653e+00 -1.2671599861630733e-04 +0.0000000000000000e+00 +9.9999999197152800e-01
2.3499999999999996e+00 +8.3648478868979215e+00 +0.0000000000000000e+00 +2.3499999934356479e+00 -1.2947192468930902e-04 +0.0000000000000000e+00 +9.9999999161851050e-01
2.3999999999999995e+00 +8.3648413444018193e+00 +0.0000000000000000e+00 +2.3999999930075897e+00 -1.3222793333586390e-04 +0.0000000000000000e+00 +9.9999999125788697e-01
2.4499999999999993e+00 +8.3648346641031814e+00 +0.0000000000000000e+00 +2.4499999925613101e+00 -1.3498402635332498e-04 +0.0000000000000000e+00 +9.9999999088965641e-01
2.4999999999999991e+00 +8.3648278459977465e+00 +0.0000000000000000e+00 +2.4999999920964284e+00 -1.3774020552763963e-04 +0.0000000000000000e+00 +9.9999999051381794e-01
2.5499999999999989e+00 +8.3648208900811625e+00 +0.0000000000000000e+00 +2.5499999916125646e+00 -1.4049647263334960e-04 +0.0000000000000000e+00 +9.9999999013037066e-01
2.5999999999999988e+00 +8.3648137963489884e+00 +0.0000000000000000e+00 +2.5999999911093385e+00 -1.4325282943359108e-04 +0.0000000000000000e+00 +9.9999998973931348e-01
2.6499999999999986e+00 +8.3648065647966945e+00 +0.0000000000000000e+00 +2.6499999905863691e+00 -1.4600927768009474e-04 +0.0000000000000000e+00 +9.9999998934064549e-01
2.6999999999999984e+00 +8.3647991954196659e+00 +0.0000000000000000e+00 +2.6999999900432763e+00 -1.4876581911318581e-04 +0.0000000000000000e+00 +9.9999998893436559e-01
2.7499999999999982e+00 +8.3647916882132005e+00 +0.0000000000000000e+00 +2.7499999894796789e+00 -1.5152245546178411e-04 +0.0000000000000000e+00 +9.9999998852047278e-01
2.7999999999999980e+00 +8.3647840431725093e+00 +0.0000000000000000e+00 +2.7999999888951965e+00 -1.5427918844340409e-04 +0.0000000000000000e+00 +9.9999998809896606e-01
2.8499999999999979e+00 +8.3647762602927180e+00 +0.0000000000000000e+00 +2.8499999882894484e+00 -1.5703601976415493e-04 +0.0000000000000000e+00 +9.9999998766984433e-01
2.8999999999999977e+00 +8.3647683395688670e+00 +0.0000000000000000e+00 +2.8999999876620541e+00 -1.5979295111874056e-04 +0.0000000000000000e+00 +9.9999998723310646e-01
2.9499999999999975e+00 +8.3647602809959114e+00 +0.0000000000000000e+00 +2.9499999870126321e+00 -1.6254998419045963e-04 +0.0000000000000000e+00 +9.9999998678875135e-01
2.9999999999999973e+00 +8.3647520845687247e+00 +0.0000000000000000e+00 +2.9999999863408022e+00 -1.6530712065120570e-04 +0.0000000000000000e+00 +9.9999998633677800e-01
3.0499999999999972e+00 +8.3647437502820949e+00 +0.0000000000000000e+00 +3.0499999856461830e+00 -1.6806436216146715e-04 +0.0000000000000000e+00 +9.9999998587718519e-01
3.0999999999999970e+00 +8.3647352781307305e+00 +0.0000000000000000e+00 +3.0999999849283939e+00 -1.7082171037032732e-04 +0.0000000000000000e+00 +9.9999998540997170e-01
3.1499999999999968e+00 +8.3647266681092525e+00 +0.0000000000000000e+00 +3.1499999841870534e+00 -1.7357916691546448e-04 +0.0000000000000000e+00 +9.9999998493513642e-01
3.1999999999999966e+00 +8.3647179202122057e+00 +0.0000000000000000e+00 +3.1999999834217805e+00 -1.7633673342315191e-04 +0.0000000000000000e+00 +9.9999998445267824e-01
3.2499999999999964e+00 +8.3647090344340516e+00 +0.0000000000000000e+00 +3.2499999826321941e+00 -1.7909441150825792e-04 +0.0000000000000000e+00 +9.9999998396259593e-01
3.2999999999999963e+00 +8.3647000107691696e+00 +0.0000000000000000e+00 +3.2999999818179129e+00 -1.8185220277424589e-04 +0.0000000000000000e+00 +9.9999998346488816e-01
3.3499999999999961e+00 +8.3646908492118612e+00 +0.0000000000000000e+00 +3.3499999809785557e+00 -1.8461010881317427e-04 +0.0000000000000000e+00 +9.9999998295955383e-01
3.3999999999999959e+00 +8.3646815497563480e+00 +0.0000000000000000e+00 +3.3999999801137410e+00 -1.8736813120569671e-04 +0.0000000000000000e+00 +9.9999998244659172e-01
3.4499999999999957e+00 +8.3646721123967751e+00 +0.0000000000000000e+00 +3.4499999792230875e+00 -1.9012627152106200e-04 +0.0000000000000000e+00 +9.9999998192600048e-01
3.4999999999999956e+00 +8.3646625371272059e+00 +0.0000000000000000e+00 +3.4999999783062137e+00 -1.9288453131711413e-04 +0.0000000000000000e+00 +9.9999998139777879e-01
3.5499999999999954e+00 +8.3646528239416273e+00 +0.0000000000000000e+00 +3.5499999773627380e+00 -1.9564291214029236e-04 +0.0000000000000000e+00 +9.9999998086192543e-01
3.5999999999999952e+00 +8.3646429728339502e+00 +0.0000000000000000e+00 +3.5999999763922790e+00 -1.9840141552563114e-04 +0.0000000000000000e+00 +9.9999998031843906e-01
3.6499999999999950e+00 +8.3646329837980069e+00 +0.0000000000000000e+00 +3.6499999753944548e+00 -2.0116004299676026e-04 +0.0000000000000000e+00 +9.9999997976731847e-01
3.6999999999999948e+00 +8.3646228568275571e+00 +0.0000000000000000e+00 +3.6999999743688834e+00 -2.0391879606590480e-04 +0.0000000000000000e+00 +9.9999997920856221e-01
3.7499999999999947e+00 +8.3646125919162824e+00 +0.0000000000000000e+00 +3.7499999733151834e+00 -2.0667767623388519e-04 +0.0000000000000000e+00 +9.9999997864216894e-01
3.7999999999999945e+00 +8.3646021890577913e+00 +0.0000000000000000e+00 +3.7999999722329729e+00 -2.0943668499011719e-04 +0.0000000000000000e+00 +9.9999997806813734e-01
3.8499999999999943e+00 +8.3645916482456162e+00 +0.0000000000000000e+00 +3.8499999711218700e+00 -2.1219582381261200e-04 +0.0000000000000000e+00 +9.9999997748646596e-01
3.8999999999999941e+00 +8.3645809694732183e+00 +0.0000000000000000e+00 +3.8999999699814922e+00 -2.1495509416797617e-04 +0.0000000000000000e+00 +9.9999997689715348e-01
3.9499999999999940e+00 +8.3645701527339842e+00 +0.0000000000000000e+00 +3.9499999688114578e+00 -2.1771449751141172e-04 +0.0000000000000000e+00 +9.9999997630019855e-01
3.9999999999999938e+00 +8.3645591980212277e+00 +0.0000000000000000e+00 +3.9999999676113847e+00 -2.2047403528671606e-04 +0.0000000000000000e+00 +9.9999997569559962e-01
4.0499999999999936e+00 +8.3645481053281916e+00 +0.0000000000000000e+00 +4.0499999663808905e+00 -2.2323370892616127e-04 +0.0000000000000000e+00 +9.9999997508335536e-01
4.0999999999999934e+00 +8.3645368746480475e+00 +0.0000000000000000e+00 +4.0999999651195926e+00 -2.2599351984916544e-04 +0.0000000000000000e+00 +9.9999997446346423e-01
4.1499999999999932e+00 +8.3645255059738961e+00 +0.0000000000000000e+00 +4.1499999638271090e+00 -2.2875346946096397e-04 +0.0000000000000000e+00 +9.9999997383592487e-01
4.1999999999999931e+00 +8.3645139992987669e+00 +0.0000000000000000e+00 +4.1999999625030577e+00 -2.3151355915248872e-04 +0.0000000000000000e+00 +9.9999997320073575e-01
4.2499999999999929e+00 +8.3645023546156221e+00 +0.0000000000000000e+00 +4.2499999611470551e+00 -2.3427379030036816e-04 +0.0000000000000000e+00 +9.9999997255789530e-01
4.2999999999999927e+00 +8.3644905719173561e+00 +0.0000000000000000e+00 +4.2999999597587193e+00 -2.3703416426692727e-04 +0.0000000000000000e+00 +9.9999997190740220e-01
4.3499999999999925e+00 +8.3644786511967926e+00 +0.0000000000000000e+00 +4.3499999583376674e+00 -2.3979468240018761e-04 +0.0000000000000000e+00 +9.9999997124925488e-01
4.3999999999999924e+00 +8.3644665924466910e+00 +0.0000000000000000e+00 +4.3999999568835166e+00 -2.4255534603386732e-04 +0.0000000000000000e+00 +9.9999997058345180e-01
4.4499999999999922e+00 +8.3644543956597417e+00 +0.0000000000000000e+00 +4.4499999553958842e+00 -2.4531615648738108e-04 +0.0000000000000000e+00 +9.9999996990999140e-01
4.4999999999999920e+00 +8.3644420608285728e+00 +0.0000000000000000e+00 +4.4999999538743873e+00 -2.4807711506584019e-04 +0.0000000000000000e+00 +9.9999996922887224e-01
4.5499999999999918e+00 +8.3644295879457449e+00 +0.0000000000000000e+00 +4.5499999523186432e+00 -2.5083822306005255e-04 +0.0000000000000000e+00 +9.9999996854009265e-01
4.5999999999999917e+00 +8.3644169770037546e+00 +0.0000000000000000e+00 +4.5999999507282689e+00 -2.5359948174652269e-04 +0.0000000000000000e+00 +9.9999996784365108e-01
4.6499999999999915e+00 +8.3644042279950366e+00 +0.0000000000000000e+00 +4.6499999491028809e+00 -2.5636089238745166e-04 +0.0000000000000000e+00 +9.9999996713954609e-01
4.6999999999999913e+00 +8.3643913409119612e+00 +0.0000000000000000e+00 +4.6999999474420964e+00 -2.5912245623073714e-04 +0.0000000000000000e+00 +9.9999996642777600e-01
4.7499999999999911e+00 +8.3643783157468388e+00 +0.0000000000000000e+00 +4.7499999457455315e+00 -2.6188417450997352e-04 +0.0000000000000000e+00 +9.9999996570833916e-01
4.7999999999999909e+00 +8.3643651524919154e+00 +0.0000000000000000e+00 +4.7999999440128027e+00 -2.6464604844445163e-04 +0.0000000000000000e+00 +9.9999996498123411e-01
4.8499999999999908e+00 +8.3643518511393786e+00 +0.0000000000000000e+00 +4.8499999422435272e+00 -2.6740807923915908e-04 +0.0000000000000000e+00 +9.9999996424645909e-01
4.8999999999999906e+00 +8.3643384116813557e+00 +0.0000000000000000e+00 +4.8999999404373211e+00 -2.7017026808477993e-04 +0.0000000000000000e+00 +9.9999996350401266e-01
4.9499999999999904e+00 +8.3643248341099152e+00 +0.0000000000000000e+00 +4.9499999385938009e+00 -2.7293261615769494e-04 +0.0000000000000000e+00 +9.9999996275389302e-01
4.9999999999999902e+00 +8.3643111184170671e+00 +0.0000000000000000e+00 +4.9999999367125829e+00 -2.7569512461998144e-04 +0.0000000000000000e+00 +9.9999996199609864e-01
5.0499999999999901e+00 +8.3642972645947609e+00 +0.0000000000000000e+00 +5.0499999347932834e+00 -2.7845779461941337e-04 +0.0000000000000000e+00 +9.9999996123062784e-01
5.0999999999999899e+00 +8.3642832726348928e+00 +0.0000000000000000e+00 +5.0999999328355177e+00 -2.8122062728946125e-04 +0.0000000000000000e+00 +9.9999996045747885e-01
5.1499999999999897e+00 +8.3642691425293023e+00 +0.0000000000000000e+00 +5.1499999308389031e+00 -2.8398362374929209e-04 +0.0000000000000000e+00 +9.9999995967665012e-01
5.1999999999999895e+00 +8.3642548742697702e+00 +0.0000000000000000e+00 +5.1999999288030549e+00 -2.8674678510376959e-04 +0.0000000000000000e+00 +9.9999995888813997e-01
5.2499999999999893e+00 +8.3642404678480258e+00 +0.0000000000000000e+00 +5.2499999267275888e+00 -2.8951011244345389e-04 +0.0000000000000000e+00 +9.9999995809194675e-01
5.2999999999999892e+00 +8.3642259232557414e+00 +0.0000000000000000e+00 +5.2999999246121208e+00 -2.9227360684460176e-04 +0.0000000000000000e+00 +9.9999995728806867e-01
5.3499999999999890e+00 +8.3642112404845381e+00 +0.0000000000000000e+00 +5.3499999224562673e+00 -2.9503726936916646e-04 +0.0000000000000000e+00 +9.9999995647650408e-01
5.3999999999999888e+00 +8.3641964195259835e+00 +0.0000000000000000e+00 +5.3999999202596429e+00 -2.9780110106479774e-04 +0.0000000000000000e+00 +9.9999995565725130e-01
5.4499999999999886e+00 +8.3641814603715936e+00 +0.0000000000000000e+00 +5.4499999180218639e+00 -3.0056510296484187e-04 +0.0000000000000000e+00 +9.9999995483030857e-01
5.4999999999999885e+00 +8.3641663630128331e+00 +0.0000000000000000e+00 +5.4999999157425457e+00 -3.0332927608834161e-04 +0.0000000000000000e+00 +9.9999995399567421e-01
5.5499999999999883e+00 +8.3641511274411151e+00 +0.0000000000000000e+00 +5.5499999134213036e+00 -3.0609362144003616e-04 +0.0000000000000000e+00 +9.9999995315334644e-01
5.5999999999999881e+00 +8.3641357536478029e+00 +0.0000000000000000e+00 +5.5999999110577523e+00 -3.0885814001036118e-04 +0.0000000000000000e+00 +9.9999995230332361e-01
5.6499999999999879e+00 +8.3641202416242120e+00 +0.0000000000000000e+00 +5.6499999086515071e+00 -3.1162283277544870e-04 +0.0000000000000000e+00 +9.9999995144560394e-01
5.6999999999999877e+00 +8.3641045913616061e+00 +0.0000000000000000e+00 +5.6999999062021836e+00 -3.1438770069712723e-04 +0.0000000000000000e+00 +9.9999995058018565e-01
5.7499999999999876e+00 +8.3640888028512066e+00 +0.0000000000000000e+00 +5.7499999037093970e+00 -3.1715274472292153e-04 +0.0000000000000000e+00 +9.9999994970706707e-01
5.7999999999999874e+00 +8.3640728760841832e+00 +0.0000000000000000e+00 +5.7999999011727619e+00 -3.1991796578605282e-04 +0.0000000000000000e+00 +9.9999994882624632e-01
5.8499999999999872e+00 +8.3640568110516611e+00 +0.0000000000000000e+00 +5.8499998985918928e+00 -3.2268336480543861e-04 +0.0000000000000000e+00 +9.9999994793772173e-01
5.8999999999999870e+00 +8.3640406077447214e+00 +0.0000000000000000e+00 +5.8999998959664053e+00 -3.2544894268569263e-04 +0.0000000000000000e+00 +9.9999994704149153e-01
