# multipoles
# s[mm] polynom_b[n=0][T/m^n] polynom_b[n=1][T/m^n] polynom_b[n=2][T/m^n] polynom_b[n=3][T/m^n] polynom_b[n=4][T/m^n] polynom_b[n=5][T/m^n] polynom_b[n=6][T/m^n] 
+0.0000000000000000e+00 -5.5544916448170978e-01 +7.2925390712949740e+00 +4.1312375944982689e+00 -7.0428752058438686e+00 +2.2012579059667860e+04 -1.5272239323598688e+05 -1.1567030038098004e+08 
-5.0000000000000003e-02 -5.5544923043157857e-01 +7.2925184185673242e+00 +4.1329399058463068e+00 -7.4952761820765117e+00 +2.1992528413328888e+04 -1.4925757145698622e+05 -1.1552884879367401e+08 
-1.0000000000000001e-01 -5.5544965335699048e-01 +7.2925173270080776e+00 +4.1341709911434608e+00 -7.9600456730760563e+00 +2.1972474957762948e+04 -1.4566071612168261e+05 -1.1538385398353714e+08 
-1.5000000000000002e-01 -5.5545043257366045e-01 +7.2925357224072469e+00 +4.1349284980323677e+00 -8.4362758659135260e+00 +2.1952543806170899e+04 -1.4193845743528346e+05 -1.1523623283816911e+08 
-2.0000000000000001e-01 -5.5545156739730805e-01 +7.2925735305564166e+00 +4.1352100719636020e+00 -8.9230589890637937e+00 +2.1932860131790309e+04 -1.3809742525951000e+05 -1.1508690265663046e+08 
-2.5000000000000000e-01 -5.5545305714366566e-01 +7.2926306772468914e+00 +4.1350133579182495e+00 -9.4194872396286833e+00 +2.1913549120837626e+04 -1.3414424968793103e+05 -1.1493678082854624e+08 
-2.9999999999999999e-01 -5.5545490112850371e-01 +7.2927070882727509e+00 +4.1343360043836883e+00 -9.9246528765674871e+00 +2.1894735866465729e+04 -1.3008556040876867e+05 -1.1478678412229890e+08 
-3.4999999999999998e-01 -5.5545709866759785e-01 +7.2928026894246942e+00 +4.1331756584322639e+00 -1.0437648028227651e+01 +2.1876545493331771e+04 -1.2592798805040744e+05 -1.1463782949333012e+08 
-3.9999999999999997e-01 -5.5545964907672329e-01 +7.2929174065004636e+00 +4.1315299635423282e+00 -1.0957565052550091e+01 +2.1859103232782065e+04 -1.2167816148679776e+05 -1.1449083465914999e+08 
-4.4999999999999996e-01 -5.5546255167170822e-01 +7.2930511652911925e+00 +4.1293965702642890e+00 -1.1483496021538716e+01 +2.1842534117050673e+04 -1.1734271190114059e+05 -1.1434671596045469e+08 
-4.9999999999999994e-01 -5.5546580576835758e-01 +7.2932038915950583e+00 +4.1267731219488279e+00 -1.2014533265797848e+01 +2.1826963376382973e+04 -1.1292826836451166e+05 -1.1420639109240055e+08 
-5.4999999999999993e-01 -5.5546941068252609e-01 +7.2933755112078762e+00 +4.1236572680601125e+00 -1.2549768997720935e+01 +2.1812516073243169e+04 -1.0844146090400929e+05 -1.1407077660491830e+08 
-5.9999999999999998e-01 -5.5547336573005446e-01 +7.2935659499272170e+00 +4.1200466522761134e+00 -1.3088295475171766e+01 +2.1799317431155861e+04 -1.0388891918094130e+05 -1.1394079015824591e+08 
-6.5000000000000002e-01 -5.5547767022683048e-01 +7.2937751335521082e+00 +4.1159389244256168e+00 -1.3629204986339577e+01 +2.1787492501275490e+04 -9.9277272617723123e+04 -1.1381734822439463e+08 
-7.0000000000000007e-01 -5.5548232348872761e-01 +7.2940029878789741e+00 +4.1113317286411117e+00 -1.4171589675114770e+01 +2.1777166493132841e+04 -9.4613151879740704e+04 -1.1370136836501434e+08 
-7.5000000000000011e-01 -5.5548732483165308e-01 +7.2942494387086150e+00 +4.1062227122165273e+00 -1.4714541864901120e+01 +2.1768464529281733e+04 -8.9903186042545203e+04 -1.1359376754799147e+08 
-8.0000000000000016e-01 -5.5549267357153054e-01 +7.2945144118415666e+00 +4.1006095230093562e+00 -1.5257153821751961e+01 +2.1761511713290467e+04 -8.5154004746010702e+04 -1.1349546260036482e+08 
-8.5000000000000020e-01 -5.5549836902428573e-01 +7.2947978330777632e+00 +4.0944898063898600e+00 -1.5798517768222082e+01 +2.1756433217016853e+04 -8.0372237959403661e+04 -1.1340737081686392e+08 
-9.0000000000000024e-01 -5.5550441050586963e-01 +7.2950996282202105e+00 +4.0878612086283281e+00 -1.6337726031868492e+01 +2.1753354193920135e+04 -7.5564514771562521e+04 -1.1333040938895591e+08 
-9.5000000000000029e-01 -5.5551079733225184e-01 +7.2954197230717313e+00 +4.0807213777885636e+00 -1.6873870897923535e+01 +2.1752399738917476e+04 -7.0737464659915873e+04 -1.1326549507913542e+08 
-1.0000000000000002e+00 -5.5551752881939931e-01 +7.2957580434353755e+00 +4.0730679577813644e+00 -1.7406044658464399e+01 +2.1753695066470300e+04 -6.5897716950899237e+04 -1.1321354548279175e+08 
-1.0500000000000003e+00 -5.5552460428331796e-01 +7.2961145151143620e+00 +4.0648985974736576e+00 -1.7933339562385434e+01 +2.1757365250976498e+04 -6.1051901430300852e+04 -1.1317547722973205e+08 
-1.1000000000000003e+00 -5.5553202304000471e-01 +7.2964890639142110e+00 +4.0562109409984011e+00 -1.8454847937267616e+01 +2.1763535496338198e+04 -5.6206647196893784e+04 -1.1315220782992090e+08 
-1.1500000000000004e+00 -5.5553978440549479e-01 +7.2968816156404888e+00 +4.0470026365809773e+00 -1.8969662106462643e+01 +2.1772330897158481e+04 -5.1368583304705324e+04 -1.1314465406045501e+08 
-1.2000000000000004e+00 -5.5554788769582431e-01 +7.2972920961006000e+00 +4.0372713304419170e+00 -1.9476874419838442e+01 +2.1783876596217713e+04 -4.6544338697130799e+04 -1.1315373300372818e+08 
-1.2500000000000004e+00 -5.5555633222703349e-01 +7.2977204311009496e+00 +4.0270146659671591e+00 -1.9975577186600876e+01 +2.1798297822207503e+04 -4.1740542542276409e+04 -1.1318036235848907e+08 
-1.3000000000000005e+00 -5.5556511731520208e-01 +7.2981665464484644e+00 +4.0162302919201638e+00 -2.0464862697908501e+01 +2.1815719645486675e+04 -3.6963824212508211e+04 -1.1322545870367657e+08 
-1.3500000000000005e+00 -5.5557424227640673e-01 +7.2986303679552229e+00 +4.0049158532776392e+00 -2.0943823434795942e+01 +2.1836267247192718e+04 -3.2220811515300236e+04 -1.1328993940153682e+08 
-1.4000000000000006e+00 -5.5558370642674104e-01 +7.2991118214257487e+00 +3.9930689955230472e+00 -2.1411551565963052e+01 +2.1860065790896198e+04 -2.7518134726849152e+04 -1.1337472168075339e+08 
-1.4500000000000006e+00 -5.5559350908232097e-01 +7.2996108326744240e+00 +3.9806873657723627e+00 -2.1867139617882870e+01 +2.1887240393054617e+04 -2.2862421275592063e+04 -1.1348072244112936e+08 
-1.5000000000000007e+00 -5.5560364955925723e-01 +7.3001273275106948e+00 +3.9677686072348535e+00 -2.2309679907783934e+01 +2.1917916278918539e+04 -1.8260300239496079e+04 -1.1360885933012754e+08 
-1.5500000000000007e+00 -5.5561412717369985e-01 +7.3006612317456687e+00 +3.9543103677810705e+00 -2.2738264797321850e+01 +2.1952218544817319e+04 -1.3718400325345963e+04 -1.1376004911453119e+08 
-1.6000000000000008e+00 -5.5562494124178852e-01 +7.3012124711928807e+00 +3.9403102910259262e+00 -2.3151986723892133e+01 +2.1990272399664325e+04 -9.2433496120624059e+03 -1.1393520931426252e+08 
-1.6500000000000008e+00 -5.5563609107968837e-01 +7.3017809716656403e+00 +3.9257660221540078e+00 -2.3549938097565899e+01 +2.2032203012977341e+04 -4.8417763806568937e+03 -1.1413525719216724e+08 
-1.7000000000000008e+00 -5.5564757600358783e-01 +7.3023666589764877e+00 +3.9106752081995899e+00 -2.3931211278877047e+01 +2.2078135500127926e+04 -5.2030930023931660e+02 -1.1436110963242202e+08 
-1.7500000000000009e+00 -5.5565939532966757e-01 +7.3029694589428935e+00 +3.8950354924771684e+00 -2.4294898805085182e+01 +2.2128195076173524e+04 +3.7144244253719025e+03 -1.1461368418944611e+08 
-1.8000000000000009e+00 -5.5567154837413846e-01 +7.3035892973790890e+00 +3.8788445208958087e+00 -2.4640093069930607e+01 +2.2182506885862669e+04 +7.8557964524315903e+03 -1.1489389794258986e+08 
-1.8500000000000010e+00 -5.5568403445320125e-01 +7.3042261001002995e+00 +3.8620999351451131e+00 -2.4965886479305059e+01 +2.2241196187612430e+04 +1.1897178523976725e+04 -1.1520266873897368e+08 
-1.9000000000000010e+00 -5.5569685288310866e-01 +7.3048797929236065e+00 +3.8447993835422150e+00 -2.5271371498617967e+01 +2.2304388059134555e+04 +1.5831942903474926e+04 -1.1554091319692795e+08 
-1.9500000000000011e+00 -5.5571000298008688e-01 +7.3055503016705776e+00 +3.8269405077051504e+00 -2.5555640761867139e+01 +2.2372207756500185e+04 +1.9653463276729195e+04 -1.1590954913410941e+08 
-2.0000000000000009e+00 -5.5572348406040128e-01 +7.3062375521546707e+00 +3.8085209530143112e+00 -2.5817786547506554e+01 +2.2444780436331726e+04 +2.3355110412227827e+04 -1.1630949369952847e+08 
-2.0500000000000007e+00 -5.5573729523929460e-01 +7.3069414660852798e+00 +3.7895412128164114e+00 -2.6057166201043742e+01 +2.2522170422667154e+04 +2.6931824635885747e+04 -1.1674127562690388e+08 
-2.1000000000000005e+00 -5.5575143482834422e-01 +7.3076619424319569e+00 +3.7700133900042050e+00 -2.6274190398105048e+01 +2.2604203265278589e+04 +3.0384687379378789e+04 -1.1720389408612521e+08 
-2.1500000000000004e+00 -5.5576590093831180e-01 +7.3083988729197573e+00 +3.7499525528086712e+00 -2.6469532798575969e+01 +2.2690645981463913e+04 +3.3716285896426991e+04 -1.1769597180495384e+08 
-2.2000000000000002e+00 -5.5578069167996969e-01 +7.3091521492719105e+00 +3.7293737683368682e+00 -2.6643866976507088e+01 +2.2781265628993126e+04 +3.6929206727737605e+04 -1.1821613182088299e+08 
-2.2500000000000000e+00 -5.5579580516409854e-01 +7.3099216632123669e+00 +3.7082921038980183e+00 -2.6797866527104244e+01 +2.2875829251893560e+04 +4.0026036611209951e+04 -1.1876299704453270e+08 
-2.2999999999999998e+00 -5.5581123950151268e-01 +7.3107073064631685e+00 +3.6867226302080871e+00 -2.6932204951594709e+01 +2.2974103807776846e+04 +4.3009361531255105e+04 -1.1933518982255729e+08 
-2.3499999999999996e+00 -5.5582699280299508e-01 +7.3115089707514347e+00 +3.6646804108015005e+00 -2.7047555952170523e+01 +2.3075856444469322e+04 +4.5881769137632931e+04 -1.1993133377145430e+08 
-2.3999999999999995e+00 -5.5584306317938881e-01 +7.3123265477991772e+00 +3.6421805173586699e+00 -2.7144592994744233e+01 +2.3180854095985349e+04 +4.8645845109281850e+04 -1.2055005108532536e+08 
-2.4499999999999993e+00 -5.5585944874152204e-01 +7.3131599293309071e+00 +3.6192380176051242e+00 -2.7223989656154590e+01 +2.3288863797100228e+04 +5.1304176111456705e+04 -1.2118996461359796e+08 
-2.4999999999999991e+00 -5.5587614760022197e-01 +7.3140090070712089e+00 +3.5958679768031838e+00 -2.7286419490098755e+01 +2.3399652653588393e+04 +5.3859348581612656e+04 -1.2184969770233458e+08 
-2.5499999999999989e+00 -5.5589315786635807e-01 +7.3148736727425119e+00 +3.5720854659340793e+00 -2.7332555961267126e+01 +2.3512987615596201e+04 +5.6313948277752381e+04 -1.2252787263716763e+08 
-2.5999999999999988e+00 -5.5591047765077461e-01 +7.3157538180690906e+00 +3.5479055494611091e+00 -2.7363072596002663e+01 +2.3628635811712596e+04 +5.8670561447659718e+04 -1.2322311291884658e+08 
-2.6499999999999986e+00 -5.5592810506435675e-01 +7.3166493347762289e+00 +3.5233432977323496e+00 -2.7378642960879915e+01 +2.3746364208487757e+04 +6.0931774740971538e+04 -1.2393404093814389e+08 
-2.6999999999999984e+00 -5.5594603821799105e-01 +7.3175601145842251e+00 +3.4984137789929677e+00 -2.7379940391380416e+01 +2.3865939835487483e+04 +6.3100172821962879e+04 -1.2465927953418463e+08 
-2.7499999999999982e+00 -5.5596427522256442e-01 +7.3184860492183716e+00 +3.4731320601309212e+00 -2.7367638443869094e+01 +2.3987129755052607e+04 +6.5178342302304874e+04 -1.2539745174854143e+08 
-2.7999999999999980e+00 -5.5598281418897622e-01 +7.3194270304038875e+00 +3.4475132083583548e+00 -2.7342410649575463e+01 +2.4109701023197827e+04 +6.7168869538576953e+04 -1.2614718058854574e+08 
-2.8499999999999979e+00 -5.5600165322814743e-01 +7.3203829498604636e+00 +3.4215722933064026e+00 -2.7304930306386620e+01 +2.4233420630363056e+04 +6.9074338979830209e+04 -1.2690708861520886e+08 
-2.8999999999999977e+00 -5.5602079045099329e-01 +7.3213536993107287e+00 +3.3953243814649161e+00 -2.7255870829258793e+01 +2.4358055654346797e+04 +7.0897336077091561e+04 -1.2767579898438750e+08 
-2.9499999999999975e+00 -5.5604022396844943e-01 +7.3223391704794025e+00 +3.3687845415456539e+00 -2.7195905713933612e+01 +2.4483373114842179e+04 +7.2640446952654136e+04 -1.2845193446814421e+08 
-2.9999999999999973e+00 -5.5605995189146462e-01 +7.3233392550859921e+00 +3.3419678429040474e+00 -2.7125708233912814e+01 +2.4609140011070340e+04 +7.4306255915943329e+04 -1.2923411767915310e+08 
-3.0499999999999972e+00 -5.5607997233097073e-01 +7.3243538448515570e+00 +3.3148893505266592e+00 -2.7045951720257360e+01 +2.4735123463177752e+04 +7.5897347754616218e+04 -1.3002097206092575e+08 
-3.0999999999999970e+00 -5.5610028339794648e-01 +7.3253828314988363e+00 +3.2875641357261745e+00 -2.6957309575617270e+01 +2.4861090425317539e+04 +7.7416307896656785e+04 -1.3081111994902028e+08 
-3.1499999999999968e+00 -5.5612088320335107e-01 +7.3264261067480883e+00 +3.2600072653440737e+00 -2.6860455089565477e+01 +2.4986807965545780e+04 +7.8865720821004812e+04 -1.3160318441836520e+08 
-3.1999999999999966e+00 -5.5614176985816199e-01 +7.3274835623179788e+00 +3.2322338074841865e+00 -2.6756061484946638e+01 +2.5112043128070527e+04 +8.0248170485832961e+04 -1.3239578842060886e+08 
-3.2499999999999964e+00 -5.5616294147336676e-01 +7.3285550899287575e+00 +3.2042588308702444e+00 -2.6644802050169886e+01 +2.5236562933911126e+04 +8.1566241425140281e+04 -1.3318755471901748e+08 
-3.2999999999999963e+00 -5.5618439615995263e-01 +7.3296405812998175e+00 +3.1760974026251096e+00 -2.6527350028256127e+01 +2.5360134452900325e+04 +8.2822517773193613e+04 -1.3397710642719278e+08 
-3.3499999999999961e+00 -5.5620613202893254e-01 +7.3307399281500896e+00 +3.1477645929694797e+00 -2.6404378654949653e+01 +2.5482524672888601e+04 +8.4019583691242951e+04 -1.3476306610823521e+08 
-3.3999999999999959e+00 -5.5622814719131541e-01 +7.3318530221950065e+00 +3.1192754703240997e+00 -2.6276561009543613e+01 +2.5603500627035275e+04 +8.5160022010778091e+04 -1.3554405661208513e+08 
-3.4499999999999957e+00 -5.5625043975810995e-01 +7.3329797551539349e+00 +3.0906451014413925e+00 -2.6144570330849891e+01 +2.5722829400005732e+04 +8.6246416902535449e+04 -1.3631870116023657e+08 
-3.4999999999999956e+00 -5.5627300784035028e-01 +7.3341200187416229e+00 +3.0618885564063469e+00 -2.6009079675782218e+01 +2.5840277985159359e+04 +8.7281351080705077e+04 -1.3708562234677827e+08 
-3.5499999999999954e+00 -5.5629584954907096e-01 +7.3352737046749326e+00 +3.0330209037462916e+00 -2.5870762186064368e+01 +2.5955613422144390e+04 +8.8267407970434215e+04 -1.3784344308892113e+08 
-3.5999999999999952e+00 -5.5631896299530392e-01 +7.3364407046677451e+00 +3.0040572108804784e+00 -2.5730290873143826e+01 +2.6068602777887962e+04 +8.9207169918467393e+04 -1.3859078647788143e+08 
-3.6499999999999950e+00 -5.5634234629010670e-01 +7.3376209104353123e+00 +2.9750125481815091e+00 -2.5588338818034540e+01 +2.6179013043938667e+04 +9.0103219896167546e+04 -1.3932627510472295e+08 
-3.6999999999999948e+00 -5.5636599754454152e-01 +7.3388142136894983e+00 +2.9459019856575051e+00 -2.5445578961319086e+01 +2.6286611223151402e+04 +9.0958139736181532e+04 -1.4004853163840565e+08 
-3.7499999999999947e+00 -5.5638991486965317e-01 +7.3400205061428609e+00 +2.9167405887580258e+00 -2.5302684274842150e+01 +2.6391164445873539e+04 +9.1774511548528317e+04 -1.4075617962219810e+08 
-3.7999999999999945e+00 -5.5641409637652406e-01 +7.3412396795067885e+00 +2.8875434293100852e+00 -2.5160327669949989e+01 +2.6492439664524882e+04 +9.2554916902528596e+04 -1.4144784137050632e+08 
-3.8499999999999943e+00 -5.5643854017622951e-01 +7.3424716254925029e+00 +2.8583255761730100e+00 -2.5019182077923954e+01 +2.6590203919846750e+04 +9.3301937642931312e+04 -1.4212213982162812e+08 
-3.8999999999999941e+00 -5.5646324437985140e-01 +7.3437162358105947e+00 +2.8291020983279407e+00 -2.4879920392752151e+01 +2.6684224248819177e+04 +9.4018155275091864e+04 -1.4277769788008934e+08 
-3.9499999999999940e+00 -5.5648820709847735e-01 +7.3449734021656221e+00 +2.7998880646184330e+00 -2.4743215268981626e+01 +2.6774267696934625e+04 +9.4706149362967422e+04 -1.4341313852213925e+08 
-3.9999999999999938e+00 -5.5651342644320922e-01 +7.3462430162701517e+00 +2.7706985460108671e+00 -2.4609739700350179e+01 +2.6860101247030947e+04 +9.5368502334200515e+04 -1.4402708427097103e+08 
-4.0499999999999936e+00 -5.5653890039440390e-01 +7.3475249534555109e+00 +2.7415447015359655e+00 -2.4479970671837805e+01 +2.6941572396773132e+04 +9.6007130503499720e+04 -1.4461859435465997e+08 
-4.0999999999999934e+00 -5.5656462640913351e-01 +7.3488190187395723e+00 +2.7124228901216534e+00 -2.4353584039620230e+01 +2.7018841715885010e+04 +9.6620957731479357e+04 -1.4518844789446828e+08 
-4.1499999999999932e+00 -5.5659060181355180e-01 +7.3501249983404691e+00 +2.6833259924867479e+00 -2.4230052626853606e+01 +2.7092145931143419e+04 +9.7208086673896934e+04 -1.4573784758269396e+08 
-4.1999999999999931e+00 -5.5661682393381096e-01 +7.3514426784797307e+00 +2.6542468882752228e+00 -2.4108849400378290e+01 +2.7161721803721543e+04 +9.7766621058559496e+04 -1.4626799635834309e+08 
-4.2499999999999929e+00 -5.5664329009606084e-01 +7.3527718453756448e+00 +2.6251784575527726e+00 -2.3989447211844951e+01 +2.7227806073642696e+04 +9.8294663685775391e+04 -1.4678009698322546e+08 
-4.2999999999999927e+00 -5.5666999762643976e-01 +7.3541122852518521e+00 +2.5961135771024750e+00 -2.3871319118172472e+01 +2.7290635577267294e+04 +9.8790318945826148e+04 -1.4727535289817101e+08 
-4.3499999999999925e+00 -5.5669694385112556e-01 +7.3554637843293182e+00 +2.5670451314582072e+00 -2.3753938078317237e+01 +2.7350446935465512e+04 +9.9251690419263148e+04 -1.4775496606885841e+08 
-4.3999999999999924e+00 -5.5672412609624955e-01 +7.3568261288282866e+00 +2.5379659968437087e+00 -2.3636777025093235e+01 +2.7407476991872540e+04 +9.9676881422038496e+04 -1.4822013996122903e+08 
-4.4499999999999922e+00 -5.5675154168796603e-01 +7.3581991049743030e+00 +2.5088690532675129e+00 -2.3519309111572568e+01 +2.7461962487966790e+04 +1.0006399705071331e+05 -1.4867207735026944e+08 
-4.4999999999999920e+00 -5.5677918795241577e-01 +7.3595824989903793e+00 +2.4797471790151770e+00 -2.3401007391970381e+01 +2.7514140209423433e+04 +1.0041114153625503e+05 -1.4911198130902392e+08 
-4.5499999999999918e+00 -5.5680706221574827e-01 +7.3609760970989271e+00 +2.4505932531379147e+00 -2.3281344902392142e+01 +2.7564246923220755e+04 +1.0071641893103192e+05 -1.4954105478636584e+08 
-4.5999999999999917e+00 -5.5683516180411607e-01 +7.3623796855257657e+00 +2.4214001564365564e+00 -2.3159794821481576e+01 +2.7612519343237072e+04 +1.0097793440706898e+05 -1.4996050035827455e+08 
-4.6499999999999915e+00 -5.5686348404365360e-01 +7.3637930504981766e+00 +2.3921607663939577e+00 -2.3035830396664913e+01 +2.7659194270012969e+04 +1.0119379365961801e+05 -1.5037152117298296e+08 
-4.6999999999999913e+00 -5.5689202626050927e-01 +7.3652159782389166e+00 +2.3628679630828051e+00 -2.2908924697670010e+01 +2.7704508439915615e+04 +1.0136210089506094e+05 -1.5077531997371104e+08 
-4.7499999999999911e+00 -5.5692078578080795e-01 +7.3666482549786618e+00 +2.3335146230195578e+00 -2.2778551109643043e+01 +2.7748698677317745e+04 +1.0148096279136543e+05 -1.5117310006748161e+08 
-4.7999999999999909e+00 -5.5694975993069107e-01 +7.3680896669409233e+00 +2.3040936261120133e+00 -2.2644182765003492e+01 +2.7792001713685517e+04 +1.0154848404095671e+05 -1.5156606413203523e+08 
-4.8499999999999908e+00 -5.5697894603629805e-01 +7.3695400003578975e+00 +2.2745978520434349e+00 -2.2505293120882460e+01 +2.7834654288546641e+04 +1.0156277179905580e+05 -1.5195541490816298e+08 
-4.8999999999999906e+00 -5.5700834142373912e-01 +7.3709990414551996e+00 +2.2450201761417463e+00 -2.2361355395954494e+01 +2.7876893255049195e+04 +1.0152193129809515e+05 -1.5234235589550379e+08 
-4.9499999999999904e+00 -5.5703794341916291e-01 +7.3724665764661363e+00 +2.2153534809802560e+00 -2.2211843132206557e+01 +2.7918955268353682e+04 +1.0142407038521057e+05 -1.5272808924602357e+08 
-4.9999999999999902e+00 -5.5706774934866354e-01 +7.3739423916175530e+00 +2.1855906403991332e+00 -2.2056229598222327e+01 +2.7961077216467362e+04 +1.0126729452779422e+05 -1.5311381868041879e+08 
-5.0499999999999901e+00 -5.5709775653836580e-01 +7.3754262731447451e+00 +2.1557245336765516e+00 -2.1893988439264088e+01 +2.8003495844008521e+04 +1.0104971231601952e+05 -1.5350074696372488e+08 
