# field on trajectory
# s[mm] rx[mm] ry[mm] rz[mm] bx[T] by[T] bz[T]
0.0000000000000000e+00 +8.5389999999999997e+00 +0.0000000000000000e+00 +0.0000000000000000e+00 -2.8378898707278419e-02 -5.5576468568822390e-01 +5.5360583815781544e-03
-5.0000000000000003e-02 +8.5389999306542972e+00 +0.0000000000000000e+00 -4.9999999999935880e-02 -2.8378842322303359e-02 -5.5576511586316346e-01 +5.5361754147274884e-03
-1.0000000000000001e-01 +8.5389997226171044e+00 +0.0000000000000000e+00 -9.9999999999487055e-02 -2.8378798713139981e-02 -5.5576587812903711e-01 +5.5362970165479105e-03
-1.5000000000000002e-01 +8.5389993758882294e+00 +0.0000000000000000e+00 -1.4999999999826882e-01 -2.8378768085605174e-02 -5.5576697176211431e-01 +5.5364231833346786e-03
-2.0000000000000001e-01 +8.5389988904674006e+00 +0.0000000000000000e+00 -1.9999999999589646e-01 -2.8378750645516326e-02 -5.5576839603868078e-01 +5.5365539113832003e-03
-2.5000000000000000e-01 +8.5389982663542625e+00 +0.0000000000000000e+00 -2.4999999999198527e-01 -2.8378746598691315e-02 -5.5577015023503773e-01 +5.5366891969890215e-03
-2.9999999999999999e-01 +8.5389975035483783e+00 +0.0000000000000000e+00 -2.9999999998615051e-01 -2.8378756150948641e-02 -5.5577223362750183e-01 +5.5368290364478344e-03
-3.4999999999999998e-01 +8.5389966020492274e+00 +0.0000000000000000e+00 -3.4999999997800746e-01 -2.8378779508107389e-02 -5.5577464549240496e-01 +5.5369734260554554e-03
-3.9999999999999997e-01 +8.5389955618562077e+00 +0.0000000000000000e+00 -3.9999999996717139e-01 -2.8378816875987228e-02 -5.5577738510609453e-01 +5.5371223621078266e-03
-4.4999999999999996e-01 +8.5389943829686352e+00 +0.0000000000000000e+00 -4.4999999995325757e-01 -2.8378868460408553e-02 -5.5578045174493274e-01 +5.5372758409010115e-03
-4.9999999999999994e-01 +8.5389930653857444e+00 +0.0000000000000000e+00 -4.9999999993588129e-01 -2.8378934467192380e-02 -5.5578384468529674e-01 +5.5374338587311804e-03
-5.4999999999999993e-01 +8.5389916091066898e+00 +0.0000000000000000e+00 -5.4999999991465776e-01 -2.8379015102160482e-02 -5.5578756320357925e-01 +5.5375964118946101e-03
-5.9999999999999998e-01 +8.5389900141305421e+00 +0.0000000000000000e+00 -5.9999999988920227e-01 -2.8379110571135367e-02 -5.5579160657618709e-01 +5.5377634966876851e-03
-6.5000000000000002e-01 +8.5389882804562927e+00 +0.0000000000000000e+00 -6.4999999985912993e-01 -2.8379221079940332e-02 -5.5579597407954284e-01 +5.5379351094068741e-03
-7.0000000000000007e-01 +8.5389864080828524e+00 +0.0000000000000000e+00 -6.9999999982405603e-01 -2.8379346834399449e-02 -5.5580066499008240e-01 +5.5381112463487332e-03
-7.5000000000000011e-01 +8.5389843970090507e+00 +0.0000000000000000e+00 -7.4999999978359577e-01 -2.8379488040337669e-02 -5.5580567858425767e-01 +5.5382919038099096e-03
-8.0000000000000016e-01 +8.5389822472336370e+00 +0.0000000000000000e+00 -7.9999999973736435e-01 -2.8379644903580789e-02 -5.5581101413853407e-01 +5.5384770780871097e-03
-8.5000000000000020e-01 +8.5389799587552773e+00 +0.0000000000000000e+00 -8.4999999968497697e-01 -2.8379817629955506e-02 -5.5581667092939180e-01 +5.5386667654771186e-03
-9.0000000000000024e-01 +8.5389775315725629e+00 +0.0000000000000000e+00 -8.9999999962604882e-01 -2.8380006425289463e-02 -5.5582264823332495e-01 +5.5388609622767744e-03
-9.5000000000000029e-01 +8.5389749656839999e+00 +0.0000000000000000e+00 -9.4999999956019499e-01 -2.8380211495411225e-02 -5.5582894532684235e-01 +5.5390596647829794e-03
-1.0000000000000002e+00 +8.5389722610880181e+00 +0.0000000000000000e+00 -9.9999999948703056e-01 -2.8380433046150389e-02 -5.5583556148646640e-01 +5.5392628692926844e-03
-1.0500000000000003e+00 +8.5389694177829671e+00 +0.0000000000000000e+00 -1.0499999994061706e+00 -2.8380671283337558e-02 -5.5584249598873425e-01 +5.5394705721028767e-03
-1.1000000000000003e+00 +8.5389664357671151e+00 +0.0000000000000000e+00 -1.0999999993172305e+00 -2.8380926412804357e-02 -5.5584974811019594e-01 +5.5396827695105870e-03
-1.1500000000000004e+00 +8.5389633150386537e+00 +0.0000000000000000e+00 -1.1499999992198249e+00 -2.8381198640383534e-02 -5.5585731712741626e-01 +5.5398994578128675e-03
-1.2000000000000004e+00 +8.5389600555956928e+00 +0.0000000000000000e+00 -1.1999999991135692e+00 -2.8381488171908924e-02 -5.5586520231697323e-01 +5.5401206333068045e-03
-1.2500000000000004e+00 +8.5389566574362643e+00 +0.0000000000000000e+00 -1.2499999989980783e+00 -2.8381795213215513e-02 -5.5587340295545806e-01 +5.5403462922894962e-03
-1.3000000000000005e+00 +8.5389531205583236e+00 +0.0000000000000000e+00 -1.2999999988729671e+00 -2.8382119970139442e-02 -5.5588191831947675e-01 +5.5405764310580558e-03
-1.3500000000000005e+00 +8.5389494449597443e+00 +0.0000000000000000e+00 -1.3499999987378508e+00 -2.8382462648518094e-02 -5.5589074768564783e-01 +5.5408110459095944e-03
-1.4000000000000006e+00 +8.5389456306383238e+00 +0.0000000000000000e+00 -1.3999999985923444e+00 -2.8382823454190007e-02 -5.5589989033060294e-01 +5.5410501331412312e-03
-1.4500000000000006e+00 +8.5389416775917795e+00 +0.0000000000000000e+00 -1.4499999984360625e+00 -2.8383202592995059e-02 -5.5590934553098759e-01 +5.5412936890500714e-03
-1.5000000000000007e+00 +8.5389375858177523e+00 +0.0000000000000000e+00 -1.4999999982686203e+00 -2.8383600270774391e-02 -5.5591911256345994e-01 +5.5415417099332117e-03
-1.5500000000000007e+00 +8.5389333553138052e+00 +0.0000000000000000e+00 -1.5499999980896326e+00 -2.8384016693370463e-02 -5.5592919070469182e-01 +5.5417941920877217e-03
-1.6000000000000008e+00 +8.5389289860774245e+00 +0.0000000000000000e+00 -1.5999999978987143e+00 -2.8384452066627090e-02 -5.5593957923136761e-01 +5.5420511318106536e-03
-1.6500000000000008e+00 +8.5389244781060167e+00 +0.0000000000000000e+00 -1.6499999976954802e+00 -2.8384906596389477e-02 -5.5595027742018421e-01 +5.5423125253990201e-03
-1.7000000000000008e+00 +8.5389198313969121e+00 +0.0000000000000000e+00 -1.6999999974795452e+00 -2.8385380488504225e-02 -5.5596128454785188e-01 +5.5425783691497987e-03
-1.7500000000000009e+00 +8.5389150459473626e+00 +0.0000000000000000e+00 -1.7499999972505238e+00 -2.8385873948819407e-02 -5.5597259989109304e-01 +5.5428486593599178e-03
-1.8000000000000009e+00 +8.5389101217545456e+00 +0.0000000000000000e+00 -1.7999999970080309e+00 -2.8386387183184536e-02 -5.5598422272664361e-01 +5.5431233923262570e-03
-1.8500000000000010e+00 +8.5389050588155619e+00 +0.0000000000000000e+00 -1.8499999967516814e+00 -2.8386920397450669e-02 -5.5599615233125055e-01 +5.5434025643456434e-03
-1.9000000000000010e+00 +8.5388998571274328e+00 +0.0000000000000000e+00 -1.8999999964810896e+00 -2.8387473797470360e-02 -5.5600838798167462e-01 +5.5436861717148298e-03
-1.9500000000000011e+00 +8.5388945166871064e+00 +0.0000000000000000e+00 -1.9499999961958705e+00 -2.8388047589097753e-02 -5.5602092895468758e-01 +5.5439742107305026e-03
-2.0000000000000009e+00 +8.5388890374914510e+00 +0.0000000000000000e+00 -1.9999999958956387e+00 -2.8388641978188585e-02 -5.5603377452707470e-01 +5.5442666776892788e-03
-2.0500000000000007e+00 +8.5388834195372638e+00 +0.0000000000000000e+00 -2.0499999955800083e+00 -2.8389257095157560e-02 -5.5604692377317755e-01 +5.5445635660512195e-03
-2.1000000000000005e+00 +8.5388776628212621e+00 +0.0000000000000000e+00 -2.0999999952485946e+00 -2.8389892768650084e-02 -5.5606037495753280e-01 +5.5448648579305522e-03
-2.1500000000000004e+00 +8.5388717673400887e+00 +0.0000000000000000e+00 -2.1499999949010116e+00 -2.8390548751869495e-02 -5.5607412614223062e-01 +5.5451705326052146e-03
-2.2000000000000002e+00 +8.5388657330903115e+00 +0.0000000000000000e+00 -2.1999999945368738e+00 -2.8391224798019647e-02 -5.5608817538937361e-01 +5.5454805693533615e-03
-2.2500000000000000e+00 +8.5388595600684258e+00 +0.0000000000000000e+00 -2.2499999941557958e+00 -2.8391920660304819e-02 -5.5610252076107280e-01 +5.5457949474533698e-03
-2.2999999999999998e+00 +8.5388532482708523e+00 +0.0000000000000000e+00 -2.2999999937573916e+00 -2.8392636091929751e-02 -5.5611716031944913e-01 +5.5461136461838600e-03
-2.3499999999999996e+00 +8.5388467976939371e+00 +0.0000000000000000e+00 -2.3499999933412763e+00 -2.8393370846099542e-02 -5.5613209212663395e-01 +5.5464366448236954e-03
-2.3999999999999995e+00 +8.5388402083339532e+00 +0.0000000000000000e+00 -2.3999999929070635e+00 -2.8394124676019643e-02 -5.5614731424476638e-01 +5.5467639226519962e-03
-2.4499999999999993e+00 +8.5388334801871029e+00 +0.0000000000000000e+00 -2.4499999924543676e+00 -2.8394897334895790e-02 -5.5616282473599565e-01 +5.5470954589481574e-03
-2.4999999999999991e+00 +8.5388266132495154e+00 +0.0000000000000000e+00 -2.4999999919828033e+00 -2.8395688575934042e-02 -5.5617862166247956e-01 +5.5474312329918535e-03
-2.5499999999999989e+00 +8.5388196075172491e+00 +0.0000000000000000e+00 -2.5499999914919842e+00 -2.8396498152340643e-02 -5.5619470308638452e-01 +5.5477712240630493e-03
-2.5999999999999988e+00 +8.5388124629862912e+00 +0.0000000000000000e+00 -2.5999999909815248e+00 -2.8397325817322044e-02 -5.5621106706988621e-01 +5.5481154114420230e-03
-2.6499999999999986e+00 +8.5388051796525577e+00 +0.0000000000000000e+00 -2.6499999904510392e+00 -2.8398171324084863e-02 -5.5622771167516727e-01 +5.5484637744093570e-03
-2.6999999999999984e+00 +8.5387977575118956e+00 +0.0000000000000000e+00 -2.6999999899001415e+00 -2.8399034425835842e-02 -5.5624463496441989e-01 +5.5488162922459668e-03
-2.7499999999999982e+00 +8.5387901965600808e+00 +0.0000000000000000e+00 -2.7499999893284452e+00 -2.8399914875781779e-02 -5.5626183499984272e-01 +5.5491729442331029e-03
-2.7999999999999980e+00 +8.5387824967928214e+00 +0.0000000000000000e+00 -2.7999999887355651e+00 -2.8400812427129524e-02 -5.5627930984364371e-01 +5.5495337096523644e-03
-2.8499999999999979e+00 +8.5387746582057567e+00 +0.0000000000000000e+00 -2.8499999881211147e+00 -2.8401726833085960e-02 -5.5629705755803693e-01 +5.5498985677857153e-03
-2.8999999999999977e+00 +8.5387666807944580e+00 +0.0000000000000000e+00 -2.8999999874847076e+00 -2.8402657846857922e-02 -5.5631507620524490e-01 +5.5502674979154860e-03
-2.9499999999999975e+00 +8.5387585645544277e+00 +0.0000000000000000e+00 -2.9499999868259579e+00 -2.8403605221652167e-02 -5.5633336384749665e-01 +5.5506404793243909e-03
-2.9999999999999973e+00 +8.5387503094811041e+00 +0.0000000000000000e+00 -2.9999999861444793e+00 -2.8404568710675353e-02 -5.5635191854702826e-01 +5.5510174912955425e-03
-3.0499999999999972e+00 +8.5387419155698563e+00 +0.0000000000000000e+00 -3.0499999854398858e+00 -2.8405548067134002e-02 -5.5637073836608286e-01 +5.5513985131124500e-03
-3.0999999999999970e+00 +8.5387333828159875e+00 +0.0000000000000000e+00 -3.0999999847117907e+00 -2.8406543044234449e-02 -5.5638982136690962e-01 +5.5517835240590507e-03
-3.1499999999999968e+00 +8.5387247112147353e+00 +0.0000000000000000e+00 -3.1499999839598081e+00 -2.8407553395182805e-02 -5.5640916561176446e-01 +5.5521725034196967e-03
-3.1999999999999966e+00 +8.5387159007612734e+00 +0.0000000000000000e+00 -3.1999999831835511e+00 -2.8408578873184921e-02 -5.5642876916290973e-01 +5.5525654304791920e-03
-3.2499999999999964e+00 +8.5387069514507097e+00 +0.0000000000000000e+00 -3.2499999823826333e+00 -2.8409619231446359e-02 -5.5644863008261336e-01 +5.5529622845227784e-03
-3.2999999999999963e+00 +8.5386978632780881e+00 +0.0000000000000000e+00 -3.2999999815566685e+00 -2.8410674223172363e-02 -5.5646874643314859e-01 +5.5533630448361699e-03
-3.3499999999999961e+00 +8.5386886362383869e+00 +0.0000000000000000e+00 -3.3499999807052698e+00 -2.8411743601567792e-02 -5.5648911627679531e-01 +5.5537676907055503e-03
-3.3999999999999959e+00 +8.5386792703265257e+00 +0.0000000000000000e+00 -3.3999999798280505e+00 -2.8412827119837093e-02 -5.5650973767583878e-01 +5.5541762014175823e-03
-3.4499999999999957e+00 +8.5386697655373567e+00 +0.0000000000000000e+00 -3.4499999789246241e+00 -2.8413924531184270e-02 -5.5653060869256776e-01 +5.5545885562594283e-03
-3.4999999999999956e+00 +8.5386601218656715e+00 +0.0000000000000000e+00 -3.4999999779946038e+00 -2.8415035588812875e-02 -5.5655172738927849e-01 +5.5550047345187597e-03
-3.5499999999999954e+00 +8.5386503393062014e+00 +0.0000000000000000e+00 -3.5499999770376029e+00 -2.8416160045925894e-02 -5.5657309182827019e-01 +5.5554247154837597e-03
-3.5999999999999952e+00 +8.5386404178536139e+00 +0.0000000000000000e+00 -3.5999999760532346e+00 -2.8417297655725780e-02 -5.5659470007184730e-01 +5.5558484784431466e-03
-3.6499999999999950e+00 +8.5386303575025178e+00 +0.0000000000000000e+00 -3.6499999750411121e+00 -2.8418448171414371e-02 -5.5661655018231881e-01 +5.5562760026861696e-03
-3.6999999999999948e+00 +8.5386201582474595e+00 +0.0000000000000000e+00 -3.6999999740008480e+00 -2.8419611346192905e-02 -5.5663864022199783e-01 +5.5567072675026452e-03
-3.7499999999999947e+00 +8.5386098200829252e+00 +0.0000000000000000e+00 -3.7499999729320552e+00 -2.8420786933261916e-02 -5.5666096825320144e-01 +5.5571422521829361e-03
-3.7999999999999945e+00 +8.5385993430033462e+00 +0.0000000000000000e+00 -3.7999999718343473e+00 -2.8421974685821246e-02 -5.5668353233825107e-01 +5.5575809360179883e-03
-3.8499999999999943e+00 +8.5385887270030896e+00 +0.0000000000000000e+00 -3.8499999707073367e+00 -2.8423174357070001e-02 -5.5670633053947116e-01 +5.5580232982993345e-03
-3.8999999999999941e+00 +8.5385779720764674e+00 +0.0000000000000000e+00 -3.8999999695506360e+00 -2.8424385700206483e-02 -5.5672936091918956e-01 +5.5584693183190967e-03
-3.9499999999999940e+00 +8.5385670782177314e+00 +0.0000000000000000e+00 -3.9499999683638585e+00 -2.8425608468428159e-02 -5.5675262153973759e-01 +5.5589189753700117e-03
-3.9999999999999938e+00 +8.5385560454210783e+00 +0.0000000000000000e+00 -3.9999999671466164e+00 -2.8426842414931687e-02 -5.5677611046345021e-01 +5.5593722487454304e-03
-4.0499999999999936e+00 +8.5385448736806442e+00 +0.0000000000000000e+00 -4.0499999658985226e+00 -2.8428087313956164e-02 -5.5679982566654884e-01 +5.5598291206382247e-03
-4.0999999999999934e+00 +8.5385335629905139e+00 +0.0000000000000000e+00 -4.0999999646191894e+00 -2.8429343023913884e-02 -5.5682376478079598e-01 +5.5602895848372519e-03
-4.1499999999999932e+00 +8.5385221133447118e+00 +0.0000000000000000e+00 -4.1499999633082290e+00 -2.8430609424260796e-02 -5.5684792535183836e-01 +5.5607536380302561e-03
-4.1999999999999931e+00 +8.5385105247372088e+00 +0.0000000000000000e+00 -4.1999999619652542e+00 -2.8431886394453085e-02 -5.5687230492532291e-01 +5.5612212769049155e-03
-4.2499999999999929e+00 +8.5384987971619228e+00 +0.0000000000000000e+00 -4.2499999605898777e+00 -2.8433173813947249e-02 -5.5689690104689704e-01 +5.5616924981488148e-03
-4.2999999999999927e+00 +8.5384869306127147e+00 +0.0000000000000000e+00 -4.2999999591817115e+00 -2.8434471562200050e-02 -5.5692171126220746e-01 +5.5621672984494533e-03
-4.3499999999999925e+00 +8.5384749250833920e+00 +0.0000000000000000e+00 -4.3499999577403683e+00 -2.8435779518668505e-02 -5.5694673311690113e-01 +5.5626456744942206e-03
-4.3999999999999924e+00 +8.5384627805677127e+00 +0.0000000000000000e+00 -4.3999999562654599e+00 -2.8437097562809942e-02 -5.5697196415662353e-01 +5.5631276229703873e-03
-4.4499999999999922e+00 +8.5384504970593795e+00 +0.0000000000000000e+00 -4.4499999547565983e+00 -2.8438425574081945e-02 -5.5699740192701985e-01 +5.5636131405651084e-03
-4.4999999999999920e+00 +8.5384380745520456e+00 +0.0000000000000000e+00 -4.4999999532133952e+00 -2.8439763431942350e-02 -5.5702304397373292e-01 +5.5641022239653892e-03
-4.5499999999999918e+00 +8.5384255130393107e+00 +0.0000000000000000e+00 -4.5499999516354634e+00 -2.8441111015849323e-02 -5.5704888784240525e-01 +5.5645948698580944e-03
-4.5999999999999917e+00 +8.5384128125147267e+00 +0.0000000000000000e+00 -4.5999999500224140e+00 -2.8442468205261254e-02 -5.5707493107867712e-01 +5.5650910749299341e-03
-4.6499999999999915e+00 +8.5383999729717939e+00 +0.0000000000000000e+00 -4.6499999483738597e+00 -2.8443834879636837e-02 -5.5710117122818692e-01 +5.5655908358674443e-03
-4.6999999999999913e+00 +8.5383869944039645e+00 +0.0000000000000000e+00 -4.6999999466894113e+00 -2.8445210918435038e-02 -5.5712760583657028e-01 +5.5660941493569822e-03
-4.7499999999999911e+00 +8.5383738768046413e+00 +0.0000000000000000e+00 -4.7499999449686809e+00 -2.8446596201115087e-02 -5.5715423244946094e-01 +5.5666010120847221e-03
-4.7999999999999909e+00 +8.5383606201671807e+00 +0.0000000000000000e+00 -4.7999999432112803e+00 -2.8447990607136493e-02 -5.5718104861248940e-01 +5.5671114207366370e-03
-4.8499999999999908e+00 +8.5383472244848910e+00 +0.0000000000000000e+00 -4.8499999414168213e+00 -2.8449394015959074e-02 -5.5720805187128386e-01 +5.5676253719984855e-03
-4.8999999999999906e+00 +8.5383336897510329e+00 +0.0000000000000000e+00 -4.8999999395849150e+00 -2.8450806307042869e-02 -5.5723523977146838e-01 +5.5681428625558096e-03
-4.9499999999999904e+00 +8.5383200159588224e+00 +0.0000000000000000e+00 -4.9499999377151731e+00 -2.8452227359848238e-02 -5.5726260985866372e-01 +5.5686638890939189e-03
-4.9999999999999902e+00 +8.5383062031014276e+00 +0.0000000000000000e+00 -4.9999999358072067e+00 -2.8453657053835783e-02 -5.5729015967848705e-01 +5.5691884482978833e-03
-5.0499999999999901e+00 +8.5382922511719759e+00 +0.0000000000000000e+00 -5.0499999338606267e+00 -2.8455095268466415e-02 -5.5731788677655147e-01 +5.5697165368525170e-03
-5.0999999999999899e+00 +8.5382781601635465e+00 +0.0000000000000000e+00 -5.0999999318750451e+00 -2.8456541883201299e-02 -5.5734578869846574e-01 +5.5702481514423759e-03
-5.1499999999999897e+00 +8.5382639300691778e+00 +0.0000000000000000e+00 -5.1499999298500727e+00 -2.8457996777501875e-02 -5.5737386298983371e-01 +5.5707832887517414e-03
-5.1999999999999895e+00 +8.5382495608818640e+00 +0.0000000000000000e+00 -5.1999999277853215e+00 -2.8459459830829904e-02 -5.5740210719625527e-01 +5.5713219454646117e-03
-5.2499999999999893e+00 +8.5382350525945565e+00 +0.0000000000000000e+00 -5.2499999256804015e+00 -2.8460930922647346e-02 -5.5743051886332440e-01 +5.5718641182646951e-03
-5.2999999999999892e+00 +8.5382204052001658e+00 +0.0000000000000000e+00 -5.2999999235349238e+00 -2.8462409932416510e-02 -5.5745909553662998e-01 +5.5724098038353858e-03
-5.3499999999999890e+00 +8.5382056186915598e+00 +0.0000000000000000e+00 -5.3499999213484992e+00 -2.8463896739599943e-02 -5.5748783476175545e-01 +5.5729589988597721e-03
-5.3999999999999888e+00 +8.5381906930615674e+00 +0.0000000000000000e+00 -5.3999999191207388e+00 -2.8465391223660486e-02 -5.5751673408427871e-01 +5.5735117000206141e-03
-5.4499999999999886e+00 +8.5381756283029766e+00 +0.0000000000000000e+00 -5.4499999168512527e+00 -2.8466893264061231e-02 -5.5754579104977053e-01 +5.5740679040003375e-03
-5.4999999999999885e+00 +8.5381604244085363e+00 +0.0000000000000000e+00 -5.4999999145396528e+00 -2.8468402740265582e-02 -5.5757500320379683e-01 +5.5746276074810164e-03
-5.5499999999999883e+00 +8.5381450813709581e+00 +0.0000000000000000e+00 -5.5499999121855481e+00 -2.8469919531737213e-02 -5.5760436809191538e-01 +5.5751908071443781e-03
-5.5999999999999881e+00 +8.5381295991829127e+00 +0.0000000000000000e+00 -5.5999999097885507e+00 -2.8471443517940065e-02 -5.5763388325967866e-01 +5.5757574996717733e-03
-5.6499999999999879e+00 +8.5381139778370354e+00 +0.0000000000000000e+00 -5.6499999073482696e+00 -2.8472974578338341e-02 -5.5766354625263037e-01 +5.5763276817441853e-03
-5.6999999999999877e+00 +8.5380982173259241e+00 +0.0000000000000000e+00 -5.6999999048643160e+00 -2.8474512592396563e-02 -5.5769335461630853e-01 +5.5769013500421918e-03
-5.7499999999999876e+00 +8.5380823176421394e+00 +0.0000000000000000e+00 -5.7499999023363007e+00 -2.8476057439579504e-02 -5.5772330589624197e-01 +5.5774785012459938e-03
-5.7999999999999874e+00 +8.5380662787782082e+00 +0.0000000000000000e+00 -5.7999998997638329e+00 -2.8477608999352217e-02 -5.5775339763795273e-01 +5.5780591320353633e-03
-5.8499999999999872e+00 +8.5380501007266201e+00 +0.0000000000000000e+00 -5.8499998971465228e+00 -2.8479167151180037e-02 -5.5778362738695442e-01 +5.5786432390896677e-03
