# multipoles
# s[mm] polynom_b[n=0][T/m^n] polynom_b[n=1][T/m^n] polynom_b[n=2][T/m^n] polynom_b[n=3][T/m^n] polynom_b[n=4][T/m^n] polynom_b[n=5][T/m^n] polynom_b[n=6][T/m^n] 
+0.0000000000000000e+00 -5.5576548963388228e-01 +7.3245528326898262e+00 +4.3263756374803730e+00 -1.6140413937237220e+01 +1.3805210151401448e+04 -2.0777736615197806e+05 -6.7686866952299774e+07 
-5.0000000000000003e-02 -5.5576591816301191e-01 +7.3246104013875817e+00 +4.3222894956653173e+00 -1.6854947483668017e+01 +1.3852691521774417e+04 -2.0312849311799128e+05 -6.7869159966996804e+07 
-1.0000000000000001e-01 -5.5576667817867664e-01 +7.3246857333246398e+00 +4.3180273124910302e+00 -1.7563663822175926e+01 +1.3894531383458892e+04 -1.9844601708919974e+05 -6.8015483311458707e+07 
-1.5000000000000002e-01 -5.5576776897188407e-01 +7.3247787704283249e+00 +4.3135886095596092e+00 -1.8266563684779086e+01 +1.3930833660927128e+04 -1.9373085242638682e+05 -6.8126629938751876e+07 
-2.0000000000000001e-01 -5.5576918983365453e-01 +7.3248894546277432e+00 +4.3089729087435495e+00 -1.8963647853962996e+01 +1.3961702264965212e+04 -1.8898391306127841e+05 -6.8203392688217387e+07 
-2.5000000000000000e-01 -5.5577094005503214e-01 +7.3250177278518418e+00 +4.3041797330785148e+00 -1.9654917076938581e+01 +1.3987241077863526e+04 -1.8420611324762923e+05 -6.8246564218274444e+07 
-2.9999999999999999e-01 -5.5577301892708442e-01 +7.3251635320295456e+00 +4.2992086070708355e+00 -2.0340372073634569e+01 +1.4007553940789961e+04 -1.7939836745866825e+05 -6.8256936907155678e+07 
-3.4999999999999998e-01 -5.5577542574087191e-01 +7.3253268090914654e+00 +4.2940590512900529e+00 -2.1020013608432819e+01 +1.4022744801807683e+04 -1.7456158980720374e+05 -6.8235303858960196e+07 
-3.9999999999999997e-01 -5.5577815978747402e-01 +7.3255075009692057e+00 +4.2887305870644727e+00 -2.1693842461893315e+01 +1.4032917585502148e+04 -1.6969669428039846e+05 -6.8182458009328991e+07 
-4.4999999999999996e-01 -5.5578122035800526e-01 +7.3257055495903733e+00 +4.2832227391372513e+00 -2.2361859227690655e+01 +1.4038176126275997e+04 -1.6480459638936934e+05 -6.8099191693662792e+07 
-4.9999999999999994e-01 -5.5578460674358809e-01 +7.3259208968877401e+00 +4.2775350314937644e+00 -2.3024064695386606e+01 +1.4038624273441217e+04 -1.5988621001004169e+05 -6.7986297329476088e+07 
-5.4999999999999993e-01 -5.5578831823533392e-01 +7.3261534847921865e+00 +4.2716669828585596e+00 -2.3680459538512675e+01 +1.4034366025896930e+04 -1.5494245002405610e+05 -6.7844568375651136e+07 
-5.9999999999999998e-01 -5.5579235412441186e-01 +7.3264032552345197e+00 +4.2656181202901848e+00 -2.4331044409362587e+01 +1.4025505148462178e+04 -1.4997423147630718e+05 -6.7674796676248744e+07 
-6.5000000000000002e-01 -5.5579671370196215e-01 +7.3266701501486011e+00 +4.2593879625864082e+00 -2.4975820069238733e+01 +1.4012145633795182e+04 -1.4498246848412143e+05 -6.7477775633143887e+07 
-7.0000000000000007e-01 -5.5580139625917313e-01 +7.3269541114662067e+00 +4.2529760346708727e+00 -2.5614787176343036e+01 +1.3994391308067232e+04 -1.3996807597988017e+05 -6.7254297523192778e+07 
-7.5000000000000011e-01 -5.5580640108722723e-01 +7.3272550811182509e+00 +4.2463818581382071e+00 -2.6247946310317225e+01 +1.3972346082652410e+04 -1.3493196963513148e+05 -6.7005155180819519e+07 
-8.0000000000000016e-01 -5.5581172747733987e-01 +7.3275730010408333e+00 +4.2396049574016317e+00 -2.6875298270687185e+01 +1.3946113798981680e+04 -1.2987506318684829e+05 -6.6731140994361363e+07 
-8.5000000000000020e-01 -5.5581737472071646e-01 +7.3279078131639661e+00 +4.2326448529776419e+00 -2.7496843556251143e+01 +1.3915798397636450e+04 -1.2479827295383779e+05 -6.6433047999893665e+07 
-9.0000000000000024e-01 -5.5582334210859563e-01 +7.3282594594227755e+00 +4.2255010684722114e+00 -2.8112582880708064e+01 +1.3881503738272489e+04 -1.1970251338939715e+05 -6.6111668696448080e+07 
-9.5000000000000029e-01 -5.5582962893222265e-01 +7.3286278817504362e+00 +4.2181731264831450e+00 -2.8722516846698230e+01 +1.3843333703910912e+04 -1.1458869987850513e+05 -6.5767795728407256e+07 
-1.0000000000000002e+00 -5.5583623448286001e-01 +7.3290130220827754e+00 +4.2106605497788747e+00 -2.9326646148739702e+01 +1.3801392178953727e+04 -1.0945774703607574e+05 -6.5402221775680229e+07 
-1.0500000000000003e+00 -5.5584315805179141e-01 +7.3294148223532325e+00 +4.2029628626528988e+00 -2.9924971360157858e+01 +1.3755782999968034e+04 -1.0431057047813205e+05 -6.5015739168003514e+07 
-1.1000000000000003e+00 -5.5585039893028665e-01 +7.3298332244970421e+00 +4.1950795845829214e+00 -3.0517493114787257e+01 +1.3706610134687038e+04 -9.9148085284131928e+04 -6.4609141128360003e+07 
-1.1500000000000004e+00 -5.5585795640965896e-01 +7.3302681704491572e+00 +4.1870102397264715e+00 -3.1104212011139293e+01 +1.3653977428018135e+04 -9.3971206835698249e+04 -6.4183220063685708e+07 
-1.2000000000000004e+00 -5.5586582978122479e-01 +7.3307196021454111e+00 +4.1787543513671350e+00 -3.1685128668852141e+01 +1.3597988740123159e+04 -8.8780850305675689e+04 -6.3738768455268286e+07 
-1.2500000000000004e+00 -5.5587401833630912e-01 +7.3311874615200887e+00 +4.1703114408900985e+00 -3.2260243625743904e+01 +1.3538747991375216e+04 -8.3577931536089905e+04 -6.3276579226013280e+07 
-1.3000000000000005e+00 -5.5588252136626182e-01 +7.3316716905107215e+00 +4.1616810323299891e+00 -3.2829557542713886e+01 +1.3476359022214705e+04 -7.8363365297527285e+04 -6.2797444724949576e+07 
-1.3500000000000005e+00 -5.5589133816243630e-01 +7.3321722310547983e+00 +4.1528626475647519e+00 -3.3393071046454281e+01 +1.3410925737150574e+04 -7.3138066697927628e+04 -6.2302157761907719e+07 
-1.4000000000000006e+00 -5.5590046801620840e-01 +7.3326890250858039e+00 +4.1438558101879019e+00 -3.3950784600817947e+01 +1.3342551991728173e+04 -6.7902952089661048e+04 -6.1791510804468393e+07 
-1.4500000000000006e+00 -5.5590991021894032e-01 +7.3332220145434901e+00 +4.1346600393783719e+00 -3.4502698898978018e+01 +1.3271341756907672e+04 -6.2658935958084017e+04 -6.1266297086892255e+07 
-1.5000000000000007e+00 -5.5591966406205140e-01 +7.3337711413630613e+00 +4.1252748616732413e+00 -3.5048814432075638e+01 +1.3197398808490785e+04 -5.7406934438575241e+04 -6.0727308538783766e+07 
-1.5500000000000007e+00 -5.5592972883695002e-01 +7.3343363474811030e+00 +4.1156997992163360e+00 -3.5589131745615418e+01 +1.3120827043403089e+04 -5.2147863144786308e+04 -6.0175337920438178e+07 
-1.6000000000000008e+00 -5.5594010383504011e-01 +7.3349175748391753e+00 +4.1059343715080336e+00 -3.6123651558883068e+01 +1.3041730423791583e+04 -4.6882636285054919e+04 -5.9611178409577005e+07 
-1.6500000000000008e+00 -5.5595078834777423e-01 +7.3355147653723796e+00 +4.0959781040899435e+00 -3.6652374321384684e+01 +1.2960212750082128e+04 -4.1612170243051776e+04 -5.9035622095477059e+07 
-1.7000000000000008e+00 -5.5596178166659449e-01 +7.3361278610189853e+00 +4.0858305181244061e+00 -3.7175300596684110e+01 +1.2876377944892691e+04 -3.6337380433136190e+04 -5.8449461912134066e+07 
-1.7500000000000009e+00 -5.5597308308296067e-01 +7.3367568037192923e+00 +4.0754911362382673e+00 -3.7692431017968730e+01 +1.2790329884864739e+04 -3.1059181668220681e+04 -5.7853490457285970e+07 
-1.8000000000000009e+00 -5.5598469188834598e-01 +7.3374015354091808e+00 +4.0649594808959080e+00 -3.8203766018450132e+01 +1.2702172452647246e+04 -2.5778490409608145e+04 -5.7248500377480403e+07 
-1.8500000000000010e+00 -5.5599660737424050e-01 +7.3380619980285786e+00 +4.0542350748623814e+00 -3.8709306198788319e+01 +1.2612009527482138e+04 -2.0496221651143082e+04 -5.6635284313408390e+07 
-1.9000000000000010e+00 -5.5600882883213387e-01 +7.3387381335183663e+00 +4.0433174390251878e+00 -3.9209052173825540e+01 +1.2519945035001629e+04 -1.5213290287488990e+04 -5.6014635204750545e+07 
-1.9500000000000011e+00 -5.5602135555355348e-01 +7.3394298838164369e+00 +4.0322060987320372e+00 -3.9703004431008061e+01 +1.2426082779959981e+04 -9.9306122052451192e+03 -5.5387345173927270e+07 
-2.0000000000000009e+00 -5.5603418683000450e-01 +7.3401371908637998e+00 +4.0209005733472951e+00 -4.0191163569820183e+01 +1.2330526727203223e+04 -4.6491023382285684e+03 -5.4754207418445915e+07 
-2.0500000000000007e+00 -5.5604732174847227e-01 +7.3408599850039762e+00 +4.0094004589022534e+00 -4.0673542462736322e+01 +1.2233372324843800e+04 +6.3052745300344918e+02 -5.4115921730922334e+07 
-2.1000000000000005e+00 -5.5606075857787651e-01 +7.3415981445321128e+00 +3.9977060028170337e+00 -4.1150187222266815e+01 +1.2134680681485939e+04 +5.9081932064913053e+03 -5.3472814971021459e+07 
-2.1500000000000004e+00 -5.5607449538267151e-01 +7.3423515333099898e+00 +3.9858177146170037e+00 -4.1621148631296130e+01 +1.2034504148762726e+04 +1.1183920195534189e+04 -5.2825120184536882e+07 
-2.2000000000000002e+00 -5.5608853022731886e-01 +7.3431200152002880e+00 +3.9737361039180414e+00 -4.2086477477003569e+01 +1.1932895069964297e+04 +1.6457733621362200e+04 -5.2173070339060187e+07 
-2.2500000000000000e+00 -5.5610286117629859e-01 +7.3439034540639163e+00 +3.9614616809571461e+00 -4.2546224474694789e+01 +1.1829905776315803e+04 +2.1729658162430354e+04 -5.1516898334195361e+07 
-2.2999999999999998e+00 -5.5611748629408309e-01 +7.3447017137661001e+00 +3.9489949537128655e+00 -4.3000440511315283e+01 +1.1725588655945226e+04 +2.6999719935637102e+04 -5.0856837444554098e+07 
-2.3499999999999996e+00 -5.5613240364517058e-01 +7.3455146581682147e+00 +3.9363364326013035e+00 -4.3449176289114405e+01 +1.1619996032012341e+04 +3.2267943480928068e+04 -5.0193120505678855e+07 
-2.3999999999999995e+00 -5.5614761129406487e-01 +7.3463421511339000e+00 +3.9234866280129741e+00 -4.3892482605153937e+01 +1.1513180225191581e+04 +3.7534354172431136e+04 -4.9525980330331236e+07 
-2.4499999999999993e+00 -5.5616310730527430e-01 +7.3471840565258653e+00 +3.9104460484229637e+00 -4.4330410206974726e+01 +1.1405193615693001e+04 +4.2798976989555180e+04 -4.8855650159526139e+07 
-2.4999999999999991e+00 -5.5617888974332264e-01 +7.3480402382103343e+00 +3.8972152044605610e+00 -4.4763009968474080e+01 +1.1296088517190870e+04 +4.8061837907378955e+04 -4.8182362756956056e+07 
-2.5499999999999989e+00 -5.5619495667273355e-01 +7.3489105600488012e+00 +3.8837946044718192e+00 -4.5190332569485996e+01 +1.1185917308986222e+04 +5.3322961363450071e+04 -4.7506351341582991e+07 
-2.5999999999999988e+00 -5.5621130615805947e-01 +7.3497948859074498e+00 +3.8701847610999378e+00 -4.5612428865668733e+01 +1.1074732249884151e+04 +5.8582373207219905e+04 -4.6827848306614101e+07 
-2.6499999999999986e+00 -5.5622793626381883e-01 +7.3506930796504237e+00 +3.8563861786784814e+00 -4.6029349624737627e+01 +1.0962585829827542e+04 +6.3840098595021715e+04 -4.6147087631536014e+07 
-2.6999999999999984e+00 -5.5624484505459271e-01 +7.3516050051414314e+00 +3.8423993718370433e+00 -4.6441145582152650e+01 +1.0849530253346617e+04 +6.9096162390511774e+04 -4.5464301339611419e+07 
-2.7499999999999982e+00 -5.5626203059492396e-01 +7.3525305262475653e+00 +3.8282248466698698e+00 -4.6847867606630508e+01 +1.0735617958715951e+04 +7.4350590580824311e+04 -4.4779723046284199e+07 
-2.7999999999999980e+00 -5.5627949094939555e-01 +7.3534695068330160e+00 +3.8138631149261708e+00 -4.7249566445669856e+01 +1.0620901233639437e+04 +7.9603408162751570e+04 -4.4093585361543015e+07 
-2.8499999999999979e+00 -5.5629722418257954e-01 +7.3544218107627950e+00 +3.7993146852365327e+00 -4.7646292860979386e+01 +1.0505432444796836e+04 +8.4854640220675297e+04 -4.3406121404631622e+07 
-2.8999999999999977e+00 -5.5631522835906100e-01 +7.3553873019034670e+00 +3.7845800674977399e+00 -4.8038097678837275e+01 +1.0389263926062978e+04 +9.0104312400328577e+04 -4.2717564084530957e+07 
-2.9499999999999975e+00 -5.5633350154343209e-01 +7.3563658441218651e+00 +3.7696597710673823e+00 -4.8425031728562317e+01 +1.0272448027355886e+04 +9.5352450367685480e+04 -4.2028146422527581e+07 
-2.9999999999999973e+00 -5.5635204180029241e-01 +7.3573573012827866e+00 +3.7545543053566242e+00 -4.8807145744565197e+01 +1.0155037097573384e+04 +1.0059907899427753e+05 -4.1338101433326982e+07 
-3.0499999999999972e+00 -5.5637084719424856e-01 +7.3583615372541713e+00 +3.7392641806248887e+00 -4.9184490586480862e+01 +1.0037083456745373e+04 +1.0584422418911620e+05 -4.0647661919719517e+07 
-3.0999999999999970e+00 -5.5638991578991381e-01 +7.3593784159030164e+00 +3.7237899060655666e+00 -4.9557117062501355e+01 +9.9186394610002772e+03 +1.1108791140939742e+05 -3.9957060952180348e+07 
-3.1499999999999968e+00 -5.5640924565189920e-01 +7.3604078010948575e+00 +3.7081319899726375e+00 -4.9925075936156802e+01 +9.7997574848478616e+03 +1.1633016583798788e+05 -3.9266531704327852e+07 
-3.1999999999999966e+00 -5.5642883484483596e-01 +7.3614495566996245e+00 +3.6922909429630244e+00 -5.0288418117724618e+01 +9.6804898434918487e+03 +1.2157101374094150e+05 -3.8576306965807408e+07 
-3.2499999999999964e+00 -5.5644868143335358e-01 +7.3625035465814044e+00 +3.6762672740907476e+00 -5.0647194286049761e+01 +9.5608888934172301e+03 +1.2681047953884755e+05 -3.7886619798916288e+07 
-3.2999999999999963e+00 -5.5646878348209894e-01 +7.3635696346110517e+00 +3.6600614946986951e+00 -5.1001455394692812e+01 +9.4410069275801943e+03 +1.3204858991572214e+05 -3.7197702832340591e+07 
-3.3499999999999961e+00 -5.5648913905570008e-01 +7.3646476846559761e+00 +3.6436741118054856e+00 -5.1351252239774979e+01 +9.3208963544005546e+03 +1.3728537020886972e+05 -3.6509789469390482e+07 
-3.3999999999999959e+00 -5.5650974621880545e-01 +7.3657375605819801e+00 +3.6271056348149995e+00 -5.1696635561719248e+01 +9.2006095236752662e+03 +1.4252084535928731e+05 -3.5823112743803918e+07 
-3.4499999999999957e+00 -5.5653060303608703e-01 +7.3668391262605031e+00 +3.6103565765286114e+00 -5.2037656320233353e+01 +9.0801986859382796e+03 +1.4775504206499638e+05 -3.5137904983836599e+07 
-3.4999999999999956e+00 -5.5655170757218719e-01 +7.3679522455600406e+00 +3.5934274437329878e+00 -5.2374365342775533e+01 +8.9597162585475016e+03 +1.5298798591005048e+05 -3.4454399669086598e+07 
-3.5499999999999954e+00 -5.5657305789176281e-01 +7.3690767823481558e+00 +3.5763187444142490e+00 -5.2706813435431243e+01 +8.8392146259323217e+03 +1.5821970237070747e+05 -3.3772830049644664e+07 
-3.5999999999999952e+00 -5.5659465205950076e-01 +7.3702126004948862e+00 +3.5590309914604985e+00 -5.3035051480228695e+01 +8.7187460391370587e+03 +1.6345021746748226e+05 -3.3093428474130131e+07 
-3.6499999999999950e+00 -5.5661648814006626e-01 +7.3713595638693477e+00 +3.5415646931013978e+00 -5.3359130333868194e+01 +8.5983628749955824e+03 +1.6867955704526880e+05 -3.2416428142523058e+07 
-3.6999999999999948e+00 -5.5663856419813462e-01 +7.3725175363421878e+00 +3.5239203585163836e+00 -5.3679100900626771e+01 +8.4781174829509346e+03 +1.7390774729568788e+05 -3.1742062059662469e+07 
-3.7499999999999947e+00 -5.5666087829838695e-01 +7.3736863817820755e+00 +3.5060984973122902e+00 -5.3995014012973563e+01 +8.3580622018065133e+03 +1.7913481386026365e+05 -3.1070563166778751e+07 
-3.7999999999999945e+00 -5.5668342850550756e-01 +7.3748659640601772e+00 +3.4880996183596866e+00 -5.4306920594413533e+01 +8.2382493938509924e+03 +1.8436078307320175e+05 -3.0402164574103974e+07 
-3.8499999999999943e+00 -5.5670621288419386e-01 +7.3760561470452117e+00 +3.4699242330437556e+00 -5.4614871474434629e+01 +8.1187313468506172e+03 +1.8958568053094504e+05 -2.9737098866243701e+07 
-3.8999999999999941e+00 -5.5672922949912040e-01 +7.3772567946089946e+00 +3.4515728474915184e+00 -5.4918917599811238e+01 +7.9995604950052630e+03 +1.9480953274251387e+05 -2.9075599634061508e+07 
-3.9499999999999940e+00 -5.5675247641501024e-01 +7.3784677706229713e+00 +3.4330459760305114e+00 -5.5219109909184887e+01 +7.8807890492692595e+03 +2.0003236617232102e+05 -2.8417898953147598e+07 
-3.9999999999999938e+00 -5.5677595169653260e-01 +7.3796889389558817e+00 +3.4143441230777216e+00 -5.5515499217005484e+01 +7.7624694864936728e+03 +2.0525420624604146e+05 -2.7764230686359208e+07 
-4.0499999999999936e+00 -5.5679965332240822e-01 +7.3809201579279549e+00 +3.3954685956015696e+00 -5.5807985914655170e+01 +7.6446401454606721e+03 +2.1047379145508219e+05 -2.7114761471601982e+07 
-4.0999999999999934e+00 -5.5682357892694578e-01 +7.3821612586945546e+00 +3.3764241258861194e+00 -5.6095880672196465e+01 +7.5272780689045876e+03 +2.1568483341392991e+05 -2.6469343295586713e+07 
-4.1499999999999932e+00 -5.5684772605828647e-01 +7.3834120643770920e+00 +3.3572163872276817e+00 -5.6378349985735831e+01 +7.4103434471669407e+03 +2.2087981281747622e+05 -2.5827735883259058e+07 
-4.1999999999999931e+00 -5.5687209226454837e-01 +7.3846723980908093e+00 +3.3378510492719733e+00 -5.6654560116073050e+01 +7.2937965618379785e+03 +2.2605120841337080e+05 -2.5189699539183438e+07 
-4.2499999999999929e+00 -5.5689667509387608e-01 +7.3859420829540170e+00 +3.3183337849756325e+00 -5.6923677458286861e+01 +7.1775976143015223e+03 +2.3119150007646374e+05 -2.4554994054615345e+07 
-4.2999999999999927e+00 -5.5692147209439891e-01 +7.3872209420819326e+00 +3.2986702654645703e+00 -5.7184868268226055e+01 +7.0617068466538076e+03 +2.3629316647209690e+05 -2.3923379463118650e+07 
-4.3499999999999925e+00 -5.5694648081425002e-01 +7.3885087985934064e+00 +3.2788661618444501e+00 -5.7437298969276597e+01 +6.9460845034574386e+03 +2.4134868769665182e+05 -2.3294615814282246e+07 
-4.3999999999999924e+00 -5.5697169880155817e-01 +7.3898054756036879e+00 +3.2589271446204293e+00 -5.7680135835389137e+01 +6.8306908444527944e+03 +2.4635054259738247e+05 -2.2668463255363729e+07 
-4.4499999999999922e+00 -5.5699712360445752e-01 +7.3911107962289835e+00 +3.2388588853805582e+00 -5.7912545188970064e+01 +6.7154860968073517e+03 +2.5129121043076081e+05 -2.2044681696420662e+07 
-4.4999999999999920e+00 -5.5702275277106439e-01 +7.3924245835838809e+00 +3.2186670519326888e+00 -5.8133693287807795e+01 +6.6004305921000514e+03 +2.5616316991177210e+05 -2.1423031754544642e+07 
-4.5499999999999918e+00 -5.5704858384951705e-01 +7.3937466607862632e+00 +3.1983573166434973e+00 -5.8342746531095969e+01 +6.4854845343835714e+03 +2.6095890091770529e+05 -2.0803273166646257e+07 
-4.5999999999999917e+00 -5.5707461438792805e-01 +7.3950768509487856e+00 +3.1779353471180611e+00 -5.8538871108968323e+01 +6.3706082578123087e+03 +2.6567088160016097e+05 -2.0185166550356433e+07 
-4.6499999999999915e+00 -5.5710084193443976e-01 +7.3964149771860006e+00 +3.1574068165484301e+00 -5.8721233304407384e+01 +6.2557619403925883e+03 +2.7029159090521390e+05 -1.9568471441462256e+07 
-4.6999999999999913e+00 -5.5712726403716006e-01 +7.3977608626142004e+00 +3.1367773915938866e+00 -5.8888999465143833e+01 +6.1409059431707765e+03 +2.7481350826661580e+05 -1.8952948634419955e+07 
-4.7499999999999911e+00 -5.5715387824419715e-01 +7.3991143303447213e+00 +3.1160527400780622e+00 -5.9041335750000833e+01 +6.0260005845825171e+03 +2.7922911157846026e+05 -1.8338358587360080e+07 
-4.7999999999999909e+00 -5.5718068210368155e-01 +7.4004752034943708e+00 +3.0952385334374717e+00 -5.9177408558101234e+01 +5.9110060908727373e+03 +2.8353088074700505e+05 -1.7724461152840853e+07 
-4.8499999999999908e+00 -5.5720767316370878e-01 +7.4018433051728101e+00 +3.0743404371262866e+00 -5.9296383988728699e+01 +5.7958828483239758e+03 +2.8771129315502063e+05 -1.7111017252496030e+07 
-4.8999999999999906e+00 -5.5723484897240472e-01 +7.4032184584948206e+00 +3.0533641224663373e+00 -5.9397428367359133e+01 +5.6805910805065960e+03 +2.9176282806763734e+05 -1.6497786684632173e+07 
-4.9499999999999904e+00 -5.5726220707786267e-01 +7.4046004865720940e+00 +3.0323152557572661e+00 -5.9479707897290908e+01 +5.5650911451681113e+03 +2.9567796373026323e+05 -1.5884530147941224e+07 
-4.9999999999999902e+00 -5.5728974502817663e-01 +7.4059892125146778e+00 +3.0111995028866083e+00 -5.9542388737273178e+01 +5.4493434144454968e+03 +2.9944917806762236e+05 -1.5271008441371342e+07 
-5.0499999999999901e+00 -5.5731746037145391e-01 +7.4073844594355096e+00 +2.9900225337043844e+00 -5.9584637164298009e+01 +5.3333081447777840e+03 +3.0306894994721655e+05 -1.4656981545918861e+07 
