# trajectory
# s[mm] rx[mm] ry[mm] rz[mm] px[rad] py[rad] pz[rad]
0.0000000000000000e+00 +8.5980000000000008e+00 +0.0000000000000000e+00 +0.0000000000000000e+00 +0.0000000000000000e+00 +0.0000000000000000e+00 +1.0000000000000000e+00
-5.0000000000000003e-02 +8.5979999311192206e+00 +0.0000000000000000e+00 -4.9999999999936734e-02 +2.7552322165856660e-06 +0.0000000000000000e+00 +9.9999999999620437e-01
-1.0000000000000001e-01 +8.5979997244766597e+00 +0.0000000000000000e+00 -9.9999999999493910e-02 +5.5104715815386606e-06 +0.0000000000000000e+00 +9.9999999998481737e-01
-1.5000000000000002e-01 +8.5979993800719097e+00 +0.0000000000000000e+00 -1.4999999999829194e-01 +8.2657201487761390e-06 +0.0000000000000000e+00 +9.9999999996583899e-01
-2.0000000000000001e-01 +8.5979988979044570e+00 +0.0000000000000000e+00 -1.9999999999595128e-01 +1.1020979967417413e-05 +0.0000000000000000e+00 +9.9999999993926902e-01
-2.5000000000000000e-01 +8.5979982779736908e+00 +0.0000000000000000e+00 -2.4999999999209233e-01 +1.3776253081784045e-05 +0.0000000000000000e+00 +9.9999999990510746e-01
-2.9999999999999999e-01 +8.5979975202788932e+00 +0.0000000000000000e+00 -2.9999999998633547e-01 +1.6531541531399944e-05 +0.0000000000000000e+00 +9.9999999986335408e-01
-3.4999999999999998e-01 +8.5979966248192472e+00 +0.0000000000000000e+00 -3.4999999997830117e-01 +1.9286847350991458e-05 +0.0000000000000000e+00 +9.9999999981400878e-01
-3.9999999999999997e-01 +8.5979955915938344e+00 +0.0000000000000000e+00 -3.9999999996760982e-01 +2.2042172570487468e-05 +0.0000000000000000e+00 +9.9999999975707132e-01
-4.4999999999999996e-01 +8.5979944206016334e+00 +0.0000000000000000e+00 -4.4999999995388179e-01 +2.4797519215019483e-05 +0.0000000000000000e+00 +9.9999999969254150e-01
-4.9999999999999994e-01 +8.5979931118415216e+00 +0.0000000000000000e+00 -4.9999999993673744e-01 +2.7552889304921732e-05 +0.0000000000000000e+00 +9.9999999962041908e-01
-5.4999999999999993e-01 +8.5979916653122785e+00 +0.0000000000000000e+00 -5.4999999991579718e-01 +3.0308284855731253e-05 +0.0000000000000000e+00 +9.9999999954070384e-01
-5.9999999999999998e-01 +8.5979900810125791e+00 +0.0000000000000000e+00 -5.9999999989068131e-01 +3.3063707878187990e-05 +0.0000000000000000e+00 +9.9999999945339557e-01
-6.5000000000000002e-01 +8.5979883589410004e+00 +0.0000000000000000e+00 -6.4999999986101020e-01 +3.5819160378234880e-05 +0.0000000000000000e+00 +9.9999999935849382e-01
-7.0000000000000007e-01 +8.5979864990960166e+00 +0.0000000000000000e+00 -6.9999999982640415e-01 +3.8574644357017945e-05 +0.0000000000000000e+00 +9.9999999925599836e-01
-7.5000000000000011e-01 +8.5979845014760059e+00 +0.0000000000000000e+00 -7.4999999978648346e-01 +4.1330161810886392e-05 +0.0000000000000000e+00 +9.9999999914590887e-01
-8.0000000000000016e-01 +8.5979823660792452e+00 +0.0000000000000000e+00 -7.9999999974086844e-01 +4.4085714731392691e-05 +0.0000000000000000e+00 +9.9999999902822490e-01
-8.5000000000000020e-01 +8.5979800929039101e+00 +0.0000000000000000e+00 -8.4999999968917939e-01 +4.6841305105292682e-05 +0.0000000000000000e+00 +9.9999999890294611e-01
-9.0000000000000024e-01 +8.5979776819480787e+00 +0.0000000000000000e+00 -8.9999999963103650e-01 +4.9596934914545633e-05 +0.0000000000000000e+00 +9.9999999877007206e-01
-9.5000000000000029e-01 +8.5979751332097294e+00 +0.0000000000000000e+00 -9.4999999956605996e-01 +5.2352606136314368e-05 +0.0000000000000000e+00 +9.9999999862960232e-01
-1.0000000000000002e+00 +8.5979724466867431e+00 +0.0000000000000000e+00 -9.9999999949387008e-01 +5.5108320742965331e-05 +0.0000000000000000e+00 +9.9999999848153653e-01
-1.0500000000000003e+00 +8.5979696223768993e+00 +0.0000000000000000e+00 -1.0499999994140869e+00 +5.7864080702068685e-05 +0.0000000000000000e+00 +9.9999999832587416e-01
-1.1000000000000003e+00 +8.5979666602778835e+00 +0.0000000000000000e+00 -1.0999999993263307e+00 +6.0619887976398402e-05 +0.0000000000000000e+00 +9.9999999816261465e-01
-1.1500000000000004e+00 +8.5979635603872797e+00 +0.0000000000000000e+00 -1.1499999992302217e+00 +6.3375744523932342e-05 +0.0000000000000000e+00 +9.9999999799175754e-01
-1.2000000000000004e+00 +8.5979603227025763e+00 +0.0000000000000000e+00 -1.1999999991253798e+00 +6.6131652297852337e-05 +0.0000000000000000e+00 +9.9999999781330229e-01
-1.2500000000000004e+00 +8.5979569472211637e+00 +0.0000000000000000e+00 -1.2499999990114252e+00 +6.8887613246544291e-05 +0.0000000000000000e+00 +9.9999999762724834e-01
-1.3000000000000005e+00 +8.5979534339403330e+00 +0.0000000000000000e+00 -1.2999999988879780e+00 +7.1643629313598281e-05 +0.0000000000000000e+00 +9.9999999743359513e-01
-1.3500000000000005e+00 +8.5979497828572811e+00 +0.0000000000000000e+00 -1.3499999987546580e+00 +7.4399702437808593e-05 +0.0000000000000000e+00 +9.9999999723234212e-01
-1.4000000000000006e+00 +8.5979459939691054e+00 +0.0000000000000000e+00 -1.3999999986110854e+00 +7.7155834553173871e-05 +0.0000000000000000e+00 +9.9999999702348863e-01
-1.4500000000000006e+00 +8.5979420672728093e+00 +0.0000000000000000e+00 -1.4499999984568801e+00 +7.9912027588897167e-05 +0.0000000000000000e+00 +9.9999999680703400e-01
-1.5000000000000007e+00 +8.5979380027652983e+00 +0.0000000000000000e+00 -1.4999999982916621e+00 +8.2668283469386014e-05 +0.0000000000000000e+00 +9.9999999658297756e-01
-1.5500000000000007e+00 +8.5979338004433821e+00 +0.0000000000000000e+00 -1.5499999981150512e+00 +8.5424604114252547e-05 +0.0000000000000000e+00 +9.9999999635131864e-01
-1.6000000000000008e+00 +8.5979294603037744e+00 +0.0000000000000000e+00 -1.5999999979266673e+00 +8.8180991438313567e-05 +0.0000000000000000e+00 +9.9999999611205648e-01
-1.6500000000000008e+00 +8.5979249823430948e+00 +0.0000000000000000e+00 -1.6499999977261302e+00 +9.0937447351590627e-05 +0.0000000000000000e+00 +9.9999999586519039e-01
-1.7000000000000008e+00 +8.5979203665578652e+00 +0.0000000000000000e+00 -1.6999999975130595e+00 +9.3693973759310109e-05 +0.0000000000000000e+00 +9.9999999561071973e-01
-1.7500000000000009e+00 +8.5979156129445133e+00 +0.0000000000000000e+00 -1.7499999972870752e+00 +9.6450572561903339e-05 +0.0000000000000000e+00 +9.9999999534864359e-01
-1.8000000000000009e+00 +8.5979107214993711e+00 +0.0000000000000000e+00 -1.7999999970477971e+00 +9.9207245655006618e-05 +0.0000000000000000e+00 +9.9999999507896131e-01
-1.8500000000000010e+00 +8.5979056922186778e+00 +0.0000000000000000e+00 -1.8499999967948446e+00 +1.0196399492946137e-04 +0.0000000000000000e+00 +9.9999999480167201e-01
-1.9000000000000010e+00 +8.5979005250985772e+00 +0.0000000000000000e+00 -1.8999999965278376e+00 +1.0472082227131415e-04 +0.0000000000000000e+00 +9.9999999451677479e-01
-1.9500000000000011e+00 +8.5978952201351184e+00 +0.0000000000000000e+00 -1.9499999962463954e+00 +1.0747772956181679e-04 +0.0000000000000000e+00 +9.9999999422426888e-01
-2.0000000000000009e+00 +8.5978897773242569e+00 +0.0000000000000000e+00 -1.9999999959501378e+00 +1.1023471867742645e-04 +0.0000000000000000e+00 +9.9999999392415351e-01
-2.0500000000000007e+00 +8.5978841966618553e+00 +0.0000000000000000e+00 -2.0499999956386841e+00 +1.1299179148950258e-04 +0.0000000000000000e+00 +9.9999999361642766e-01
-2.1000000000000005e+00 +8.5978784781436826e+00 +0.0000000000000000e+00 -2.0999999953116539e+00 +1.1574894986097254e-04 +0.0000000000000000e+00 +9.9999999330109046e-01
-2.1500000000000004e+00 +8.5978726217654131e+00 +0.0000000000000000e+00 -2.1499999949686663e+00 +1.1850619564299724e-04 +0.0000000000000000e+00 +9.9999999297814091e-01
-2.2000000000000002e+00 +8.5978666275226310e+00 +0.0000000000000000e+00 -2.1999999946093411e+00 +1.2126353067466805e-04 +0.0000000000000000e+00 +9.9999999264757822e-01
-2.2500000000000000e+00 +8.5978604954108278e+00 +0.0000000000000000e+00 -2.2499999942332973e+00 +1.2402095678300688e-04 +0.0000000000000000e+00 +9.9999999230940129e-01
-2.2999999999999998e+00 +8.5978542254254045e+00 +0.0000000000000000e+00 -2.2999999938401543e+00 +1.2677847578296619e-04 +0.0000000000000000e+00 +9.9999999196360922e-01
-2.3499999999999996e+00 +8.5978478175616715e+00 +0.0000000000000000e+00 -2.3499999934295315e+00 +1.2953608947742913e-04 +0.0000000000000000e+00 +9.9999999161020092e-01
-2.3999999999999995e+00 +8.5978412718148487e+00 +0.0000000000000000e+00 -2.3999999930010478e+00 +1.3229379965720950e-04 +0.0000000000000000e+00 +9.9999999124917549e-01
-2.4499999999999993e+00 +8.5978345881800671e+00 +0.0000000000000000e+00 -2.4499999925543223e+00 +1.3505160810105187e-04 +0.0000000000000000e+00 +9.9999999088053182e-01
-2.4999999999999991e+00 +8.5978277666523706e+00 +0.0000000000000000e+00 -2.4999999920889739e+00 +1.3780951657563158e-04 +0.0000000000000000e+00 +9.9999999050426880e-01
-2.5499999999999989e+00 +8.5978208072267126e+00 +0.0000000000000000e+00 -2.5499999916046221e+00 +1.4056752683555481e-04 +0.0000000000000000e+00 +9.9999999012038543e-01
-2.5999999999999988e+00 +8.5978137098979612e+00 +0.0000000000000000e+00 -2.5999999911008853e+00 +1.4332564062335862e-04 +0.0000000000000000e+00 +9.9999998972888060e-01
-2.6499999999999986e+00 +8.5978064746608958e+00 +0.0000000000000000e+00 -2.6499999905773830e+00 +1.4608385966951104e-04 +0.0000000000000000e+00 +9.9999998932975320e-01
-2.6999999999999984e+00 +8.5977991015102102e+00 +0.0000000000000000e+00 -2.6999999900337337e+00 +1.4884218569241107e-04 +0.0000000000000000e+00 +9.9999998892300213e-01
-2.7499999999999982e+00 +8.5977915904405151e+00 +0.0000000000000000e+00 -2.7499999894695564e+00 +1.5160062039838869e-04 +0.0000000000000000e+00 +9.9999998850862615e-01
-2.7999999999999980e+00 +8.5977839414463322e+00 +0.0000000000000000e+00 -2.7999999888844695e+00 +1.5435916548170496e-04 +0.0000000000000000e+00 +9.9999998808662416e-01
-2.8499999999999979e+00 +8.5977761545220996e+00 +0.0000000000000000e+00 -2.8499999882780918e+00 +1.5711782262455208e-04 +0.0000000000000000e+00 +9.9999998765699505e-01
-2.8999999999999977e+00 +8.5977682296621740e+00 +0.0000000000000000e+00 -2.8999999876500420e+00 +1.5987659349705330e-04 +0.0000000000000000e+00 +9.9999998721973760e-01
-2.9499999999999975e+00 +8.5977601668608266e+00 +0.0000000000000000e+00 -2.9499999869999383e+00 +1.6263547975726311e-04 +0.0000000000000000e+00 +9.9999998677485058e-01
-2.9999999999999973e+00 +8.5977519661122468e+00 +0.0000000000000000e+00 -2.9999999863273996e+00 +1.6539448305116720e-04 +0.0000000000000000e+00 +9.9999998632233267e-01
-3.0499999999999972e+00 +8.5977436274105425e+00 +0.0000000000000000e+00 -3.0499999856320441e+00 +1.6815360501268246e-04 +0.0000000000000000e+00 +9.9999998586218275e-01
-3.0999999999999970e+00 +8.5977351507497399e+00 +0.0000000000000000e+00 -3.0999999849134903e+00 +1.7091284726365711e-04 +0.0000000000000000e+00 +9.9999998539439949e-01
-3.1499999999999968e+00 +8.5977265361237851e+00 +0.0000000000000000e+00 -3.1499999841713566e+00 +1.7367221141387061e-04 +0.0000000000000000e+00 +9.9999998491898168e-01
-3.1999999999999966e+00 +8.5977177835265408e+00 +0.0000000000000000e+00 -3.1999999834052613e+00 +1.7643169906103376e-04 +0.0000000000000000e+00 +9.9999998443592797e-01
-3.2499999999999964e+00 +8.5977088929517933e+00 +0.0000000000000000e+00 -3.2499999826148223e+00 +1.7919131179078873e-04 +0.0000000000000000e+00 +9.9999998394523704e-01
-3.2999999999999963e+00 +8.5976998643932507e+00 +0.0000000000000000e+00 -3.2999999817996577e+00 +1.8195105117670908e-04 +0.0000000000000000e+00 +9.9999998344690766e-01
-3.3499999999999961e+00 +8.5976906978445395e+00 +0.0000000000000000e+00 -3.3499999809593857e+00 +1.8471091878029974e-04 +0.0000000000000000e+00 +9.9999998294093839e-01
-3.3999999999999959e+00 +8.5976813932992098e+00 +0.0000000000000000e+00 -3.3999999800936243e+00 +1.8747091615099707e-04 +0.0000000000000000e+00 +9.9999998242732790e-01
-3.4499999999999957e+00 +8.5976719507507351e+00 +0.0000000000000000e+00 -3.4499999792019911e+00 +1.9023104482616892e-04 +0.0000000000000000e+00 +9.9999998190607486e-01
-3.4999999999999956e+00 +8.5976623701925128e+00 +0.0000000000000000e+00 -3.4999999782841043e+00 +1.9299130633111452e-04 +0.0000000000000000e+00 +9.9999998137717794e-01
-3.5499999999999954e+00 +8.5976526516178637e+00 +0.0000000000000000e+00 -3.5499999773395814e+00 +1.9575170217906465e-04 +0.0000000000000000e+00 +9.9999998084063568e-01
-3.5999999999999952e+00 +8.5976427950200325e+00 +0.0000000000000000e+00 -3.5999999763680401e+00 +1.9851223387118153e-04 +0.0000000000000000e+00 +9.9999998029644666e-01
-3.6499999999999950e+00 +8.5976328003921889e+00 +0.0000000000000000e+00 -3.6499999753690986e+00 +2.0127290289655893e-04 +0.0000000000000000e+00 +9.9999997974460941e-01
-3.6999999999999948e+00 +8.5976226677274301e+00 +0.0000000000000000e+00 -3.6999999743423739e+00 +2.0403371073222213e-04 +0.0000000000000000e+00 +9.9999997918512251e-01
-3.7499999999999947e+00 +8.5976123970187786e+00 +0.0000000000000000e+00 -3.7499999732874834e+00 +2.0679465884312792e-04 +0.0000000000000000e+00 +9.9999997861798462e-01
-3.7999999999999945e+00 +8.5976019882591839e+00 +0.0000000000000000e+00 -3.7999999722040445e+00 +2.0955574868216465e-04 +0.0000000000000000e+00 +9.9999997804319418e-01
-3.8499999999999943e+00 +8.5975914414415247e+00 +0.0000000000000000e+00 -3.8499999710916750e+00 +2.1231698169015223e-04 +0.0000000000000000e+00 +9.9999997746074976e-01
-3.8999999999999941e+00 +8.5975807565586049e+00 +0.0000000000000000e+00 -3.8999999699499921e+00 +2.1507835929584208e-04 +0.0000000000000000e+00 +9.9999997687064979e-01
-3.9499999999999940e+00 +8.5975699336031610e+00 +0.0000000000000000e+00 -3.9499999687786125e+00 +2.1783988291591722e-04 +0.0000000000000000e+00 +9.9999997627289283e-01
-3.9999999999999938e+00 +8.5975589725678567e+00 +0.0000000000000000e+00 -3.9999999675771538e+00 +2.2060155395499221e-04 +0.0000000000000000e+00 +9.9999997566747734e-01
-4.0499999999999936e+00 +8.5975478734452864e+00 +0.0000000000000000e+00 -4.0499999663452328e+00 +2.2336337380552405e-04 +0.0000000000000000e+00 +9.9999997505440175e-01
-4.0999999999999934e+00 +8.5975366362279733e+00 +0.0000000000000000e+00 -4.0999999650824668e+00 +2.2612534384683155e-04 +0.0000000000000000e+00 +9.9999997443366451e-01
-4.1499999999999932e+00 +8.5975252609083750e+00 +0.0000000000000000e+00 -4.1499999637884724e+00 +2.2888746544411486e-04 +0.0000000000000000e+00 +9.9999997380526418e-01
-4.1999999999999931e+00 +8.5975137474788799e+00 +0.0000000000000000e+00 -4.1999999624628659e+00 +2.3164973994836626e-04 +0.0000000000000000e+00 +9.9999997316919909e-01
-4.2499999999999929e+00 +8.5975020959318087e+00 +0.0000000000000000e+00 -4.2499999611052646e+00 +2.3441216869637022e-04 +0.0000000000000000e+00 +9.9999997252546768e-01
-4.2999999999999927e+00 +8.5974903062594166e+00 +0.0000000000000000e+00 -4.2999999597152847e+00 +2.3717475301070340e-04 +0.0000000000000000e+00 +9.9999997187406831e-01
-4.3499999999999925e+00 +8.5974783784538928e+00 +0.0000000000000000e+00 -4.3499999582925435e+00 +2.3993749419973465e-04 +0.0000000000000000e+00 +9.9999997121499951e-01
-4.3999999999999924e+00 +8.5974663125073612e+00 +0.0000000000000000e+00 -4.3999999568366572e+00 +2.4270039355762504e-04 +0.0000000000000000e+00 +9.9999997054825951e-01
-4.4499999999999922e+00 +8.5974541084118794e+00 +0.0000000000000000e+00 -4.4499999553472422e+00 +2.4546345236432782e-04 +0.0000000000000000e+00 +9.9999996987384676e-01
-4.4999999999999920e+00 +8.5974417661594451e+00 +0.0000000000000000e+00 -4.4999999538239148e+00 +2.4822667188558855e-04 +0.0000000000000000e+00 +9.9999996919175960e-01
-4.5499999999999918e+00 +8.5974292857419918e+00 +0.0000000000000000e+00 -4.5499999522662904e+00 +2.5099005337294493e-04 +0.0000000000000000e+00 +9.9999996850199646e-01
-4.5999999999999917e+00 +8.5974166671513892e+00 +0.0000000000000000e+00 -4.5999999506739861e+00 +2.5375359806372691e-04 +0.0000000000000000e+00 +9.9999996780455558e-01
-4.6499999999999915e+00 +8.5974039103794464e+00 +0.0000000000000000e+00 -4.6499999490466175e+00 +2.5651730718105679e-04 +0.0000000000000000e+00 +9.9999996709943539e-01
-4.6999999999999913e+00 +8.5973910154179105e+00 +0.0000000000000000e+00 -4.6999999473838017e+00 +2.5928118193384894e-04 +0.0000000000000000e+00 +9.9999996638663413e-01
-4.7499999999999911e+00 +8.5973779822584717e+00 +0.0000000000000000e+00 -4.7499999456851532e+00 +2.6204522351681012e-04 +0.0000000000000000e+00 +9.9999996566615013e-01
-4.7999999999999909e+00 +8.5973648108927581e+00 +0.0000000000000000e+00 -4.7999999439502883e+00 +2.6480943311043930e-04 +0.0000000000000000e+00 +9.9999996493798171e-01
-4.8499999999999908e+00 +8.5973515013123407e+00 +0.0000000000000000e+00 -4.8499999421788234e+00 +2.6757381188102764e-04 +0.0000000000000000e+00 +9.9999996420212722e-01
-4.8999999999999906e+00 +8.5973380535087305e+00 +0.0000000000000000e+00 -4.8999999403703729e+00 +2.7033836098065863e-04 +0.0000000000000000e+00 +9.9999996345858488e-01
-4.9499999999999904e+00 +8.5973244674733849e+00 +0.0000000000000000e+00 -4.9499999385245532e+00 +2.7310308154720797e-04 +0.0000000000000000e+00 +9.9999996270735303e-01
-4.9999999999999902e+00 +8.5973107431976992e+00 +0.0000000000000000e+00 -4.9999999366409797e+00 +2.7586797470434361e-04 +0.0000000000000000e+00 +9.9999996194842988e-01
-5.0499999999999901e+00 +8.5972968806730190e+00 +0.0000000000000000e+00 -5.0499999347192679e+00 +2.7863304156152573e-04 +0.0000000000000000e+00 +9.9999996118181367e-01
-5.0999999999999899e+00 +8.5972828798906296e+00 +0.0000000000000000e+00 -5.0999999327590331e+00 +2.8139828321400675e-04 +0.0000000000000000e+00 +9.9999996040750272e-01
-5.1499999999999897e+00 +8.5972687408417663e+00 +0.0000000000000000e+00 -5.1499999307598898e+00 +2.8416370074283131e-04 +0.0000000000000000e+00 +9.9999995962549515e-01
-5.1999999999999895e+00 +8.5972544635176060e+00 +0.0000000000000000e+00 -5.1999999287214544e+00 +2.8692929521483630e-04 +0.0000000000000000e+00 +9.9999995883578929e-01
-5.2499999999999893e+00 +8.5972400479092776e+00 +0.0000000000000000e+00 -5.2499999266433406e+00 +2.8969506768265079e-04 +0.0000000000000000e+00 +9.9999995803838337e-01
-5.2999999999999892e+00 +8.5972254940078550e+00 +0.0000000000000000e+00 -5.2999999245251646e+00 +2.9246101918469609e-04 +0.0000000000000000e+00 +9.9999995723327562e-01
-5.3499999999999890e+00 +8.5972108018043585e+00 +0.0000000000000000e+00 -5.3499999223665400e+00 +2.9522715074518571e-04 +0.0000000000000000e+00 +9.9999995642046413e-01
-5.3999999999999888e+00 +8.5971959712897625e+00 +0.0000000000000000e+00 -5.3999999201670823e+00 +2.9799346337412529e-04 +0.0000000000000000e+00 +9.9999995559994725e-01
-5.4499999999999886e+00 +8.5971810024549864e+00 +0.0000000000000000e+00 -5.4499999179264060e+00 +3.0075995806731266e-04 +0.0000000000000000e+00 +9.9999995477172310e-01
-5.4999999999999885e+00 +8.5971658952909049e+00 +0.0000000000000000e+00 -5.4999999156441257e+00 +3.0352663580633779e-04 +0.0000000000000000e+00 +9.9999995393578989e-01
-5.5499999999999883e+00 +8.5971506497883396e+00 +0.0000000000000000e+00 -5.5499999133198559e+00 +3.0629349755858284e-04 +0.0000000000000000e+00 +9.9999995309214584e-01
-5.5999999999999881e+00 +8.5971352659380660e+00 +0.0000000000000000e+00 -5.5999999109532110e+00 +3.0906054427722209e-04 +0.0000000000000000e+00 +9.9999995224078908e-01
-5.6499999999999879e+00 +8.5971197437308131e+00 +0.0000000000000000e+00 -5.6499999085438057e+00 +3.1182777690122188e-04 +0.0000000000000000e+00 +9.9999995138171782e-01
-5.6999999999999877e+00 +8.5971040831572623e+00 +0.0000000000000000e+00 -5.6999999060912545e+00 +3.1459519635534071e-04 +0.0000000000000000e+00 +9.9999995051493018e-01
-5.7499999999999876e+00 +8.5970882842080485e+00 +0.0000000000000000e+00 -5.7499999035951701e+00 +3.1736280355012907e-04 +0.0000000000000000e+00 +9.9999994964042438e-01
-5.7999999999999874e+00 +8.5970723468737624e+00 +0.0000000000000000e+00 -5.7999999010551679e+00 +3.2013059938192957e-04 +0.0000000000000000e+00 +9.9999994875819853e-01
-5.8499999999999872e+00 +8.5970562711449503e+00 +0.0000000000000000e+00 -5.8499998984708617e+00 +3.2289858473287688e-04 +0.0000000000000000e+00 +9.9999994786825075e-01
