# multipoles
# s[mm] polynom_b[n=0][T/m^n] polynom_b[n=1][T/m^n] polynom_b[n=2][T/m^n] polynom_b[n=3][T/m^n] polynom_b[n=4][T/m^n] polynom_b[n=5][T/m^n] polynom_b[n=6][T/m^n] 
-0.0000000000000000e+00 -5.5225243716876438e-01 +7.2570574472367513e+00 +5.0112280249217376e+00 +2.0544196585731282e+01 +6.0897131681725091e+02 -5.1026166614455386e+05 +1.8281497333282791e+07 
-5.0000000000000003e-02 -5.5225277117173988e-01 +7.2571141546874980e+00 +5.0145615780464325e+00 +2.0615464933732465e+01 +5.0633725404172861e+02 -5.1115043732094107e+05 +1.8878448804727063e+07 
-1.0000000000000001e-01 -5.5225347914532652e-01 +7.2571910102637993e+00 +5.0173560465743892e+00 +2.0706707509961191e+01 +4.0749565256257813e+02 -5.1215075287616119e+05 +1.9446266277766302e+07 
-1.4999999999999999e-01 -5.5225456012636898e-01 +7.2572879437278512e+00 +5.0196055738860084e+00 +2.0817761331725009e+01 +3.1256893594128763e+02 -5.1326190891951945e+05 +1.9984427683452241e+07 
-2.0000000000000001e-01 -5.5225601315167683e-01 +7.2574048848393362e+00 +5.0213043101158412e+00 +2.0948463577773584e+01 +2.2167934819041616e+02 -5.1448320295583148e+05 +2.0492412153252155e+07 
-2.5000000000000000e-01 -5.5225783725815980e-01 +7.2575417633641086e+00 +5.0224464010065226e+00 +2.1098651164579771e+01 +1.3494925148447939e+02 -5.1581393019489467e+05 +2.0969698022751171e+07 
-2.9999999999999999e-01 -5.5226003148267477e-01 +7.2576985090656096e+00 +5.0230259942818023e+00 +2.1268161174993139e+01 +5.2500954385895625e+01 -5.1725338733094372e+05 +2.1415763984693792e+07 
-3.4999999999999998e-01 -5.5226259486211082e-01 +7.2578750517077602e+00 +5.0230372354446997e+00 +2.1456830667936302e+01 -2.5543179395338477e+01 -5.1880087072985474e+05 +2.1830088382811584e+07 
-4.0000000000000002e-01 -5.5226552643338522e-01 +7.2580713210571606e+00 +5.0224742717237740e+00 +2.1664496639615717e+01 -9.9060827928268552e+01 -5.2045567628139007e+05 +2.2212149819132335e+07 
-4.5000000000000001e-01 -5.5226882523346021e-01 +7.2582872468806077e+00 +5.0213312510064680e+00 +2.1890996095384807e+01 -1.6792969159061556e+02 -5.2221709992695373e+05 +2.2561427064178310e+07 
-5.0000000000000000e-01 -5.5227249029924574e-01 +7.2585227589440038e+00 +5.0196023178109614e+00 +2.2136166106349581e+01 -2.3202737780754069e+02 -5.2408443810595747e+05 +2.2877398252741691e+07 
-5.5000000000000004e-01 -5.5227652066768451e-01 +7.2587777870177392e+00 +5.0172816195505847e+00 +2.2399843595081698e+01 -2.9123157336008092e+02 -5.2605698606207024e+05 +2.3159542057944376e+07 
-5.9999999999999998e-01 -5.5228091537580837e-01 +7.2590522608711527e+00 +5.0143633026600893e+00 +2.2681865543829119e+01 -3.4541993975257452e+02 -5.2813403949399537e+05 +2.3407336985670932e+07 
-6.5000000000000002e-01 -5.5228567346058888e-01 +7.2593461102738743e+00 +5.0108415132621609e+00 +2.2982068954083338e+01 -3.9447012799036531e+02 -5.3031489423639502e+05 +2.3620261464404363e+07 
-6.9999999999999996e-01 -5.5229079395906377e-01 +7.2596592649987706e+00 +5.0067103978961827e+00 +2.3300290725258737e+01 -4.3825980685605532e+02 -5.3259884531176358e+05 +2.3797794064227320e+07 
-7.5000000000000000e-01 -5.5229627590820973e-01 +7.2599916548166803e+00 +5.0019641024751484e+00 +2.3636367864957432e+01 -4.7666662114654434e+02 -5.3498518858366553e+05 +2.3939413165432621e+07 
-8.0000000000000004e-01 -5.5230211834511911e-01 +7.2603432095021052e+00 +4.9965967721925884e+00 +2.3990137262494745e+01 -5.0956820264853025e+02 -5.3747321899110207e+05 +2.4044597086524345e+07 
-8.4999999999999998e-01 -5.5230832030683386e-01 +7.2607138588280948e+00 +4.9906025545522823e+00 +2.4361435888129908e+01 -5.3684224371382368e+02 -5.4006223207894375e+05 +2.4112824544304263e+07 
-9.0000000000000002e-01 -5.5231488083042823e-01 +7.2611035325722595e+00 +4.9839755947949911e+00 +2.4750100553516429e+01 -5.5836637355908874e+02 -5.4275152210123173e+05 +2.4143573822141547e+07 
-9.4999999999999996e-01 -5.5232179895301980e-01 +7.2615121605105921e+00 +4.9767100383685543e+00 +2.5155968170248116e+01 -5.7401823010010469e+02 -5.4554038415565260e+05 +2.4136323273919873e+07 
-1.0000000000000000e+00 -5.5232907371166717e-01 +7.2619396724206746e+00 +4.9688000317693524e+00 +2.5578875610557596e+01 -5.8367547960038564e+02 -5.4842811300383706e+05 +2.4090551442545280e+07 
-1.0500000000000000e+00 -5.5233670414351499e-01 +7.2623859980809575e+00 +4.9602397199152657e+00 +2.6018659725588524e+01 -5.8721574788531825e+02 -5.5141400318290689e+05 +2.4005736606130186e+07 
-1.1000000000000001e+00 -5.5234468928573099e-01 +7.2628510672716482e+00 +4.9510232484097170e+00 +2.6475157347009812e+01 -5.8451667527307802e+02 -5.5449734918921976e+05 +2.3881357125549998e+07 
-1.1499999999999999e+00 -5.5235302817545362e-01 +7.2633348097742578e+00 +4.9411447649236173e+00 +2.6948205262266171e+01 -5.7545596345953561e+02 -5.5767744506434374e+05 +2.3716891796125721e+07 
-1.2000000000000000e+00 -5.5236171984982618e-01 +7.2638371553710304e+00 +4.9305984100350084e+00 +2.7437640253742909e+01 -5.5991111816192085e+02 -5.6095358481224102e+05 +2.3511818071828455e+07 
-1.2500000000000000e+00 -5.5237076334605983e-01 +7.2643580338439717e+00 +4.9193783336869217e+00 +2.7943299158200990e+01 -5.3775989977347831e+02 -5.6432506295363489e+05 +2.3265615131806701e+07 
-1.3000000000000000e+00 -5.5238015770137627e-01 +7.2648973749787897e+00 +4.9074786804626349e+00 +2.8465018674090015e+01 -5.0887992652573030e+02 -5.6779117284567119e+05 +2.2977761206042510e+07 
-1.3500000000000001e+00 -5.5238990195292692e-01 +7.2654551085609835e+00 +4.8948935936221849e+00 +2.9002635548289273e+01 -4.7314877687889424e+02 -5.7135120826547523e+05 +2.2647734237902146e+07 
-1.3999999999999999e+00 -5.5239999513800042e-01 +7.2660311643772246e+00 +4.8816172195948759e+00 +2.9555986493354084e+01 -4.3044412280069326e+02 -5.7500446270082798e+05 +2.2275012835254740e+07 
-1.4500000000000000e+00 -5.5241043629382469e-01 +7.2666254722161376e+00 +4.8676437048372314e+00 +3.0124908176351465e+01 -3.8064362568738983e+02 -5.7875022928117076e+05 +2.1859075485827528e+07 
-1.5000000000000000e+00 -5.5242122445763009e-01 +7.2672379618659546e+00 +4.8529671896401663e+00 +3.0709237306718748e+01 -3.2362479225652930e+02 -5.8258780150549137e+05 +2.1399399680998262e+07 
-1.5500000000000000e+00 -5.5243235866672569e-01 +7.2678685631187392e+00 +4.8375818248362794e+00 +3.1308810474586913e+01 -2.5926540567325048e+02 -5.8651647194366925e+05 +2.0895464746699423e+07 
-1.6000000000000001e+00 -5.5244383795840313e-01 +7.2685172057655114e+00 +4.8214817515939252e+00 +3.1923464325716949e+01 -1.8744299395731429e+02 -5.9053553359003738e+05 +2.0346748306832105e+07 
-1.6499999999999999e+00 -5.5245566136992252e-01 +7.2691838196003387e+00 +4.8046611162461810e+00 +3.2553035421918018e+01 -1.0803522005865462e+02 -5.9464427879873395e+05 +1.9752728878195945e+07 
-1.7000000000000000e+00 -5.5246782793864901e-01 +7.2698683344160369e+00 +4.7871140630065963e+00 +3.3197360386652107e+01 -2.0919695883132750e+01 -5.9884200041368091e+05 +1.9112884657519858e+07 
-1.7500000000000000e+00 -5.5248033670190699e-01 +7.2705706800099685e+00 +4.7688347353599783e+00 +3.3856275699805643e+01 +7.4025992067126651e+01 -6.0312799016205128e+05 +1.8426693645446289e+07 
-1.8000000000000000e+00 -5.5249318669700154e-01 +7.2712907861792928e+00 +4.7498172800728469e+00 +3.4529617881585132e+01 +1.7692416662020906e+02 -6.0750154013644927e+05 +1.7693634464046761e+07 
-1.8500000000000001e+00 -5.5250637696131488e-01 +7.2720285827220881e+00 +4.7300558412401159e+00 +3.5217223426008324e+01 +2.8789722210707998e+02 -6.1196194218391750e+05 +1.6913185254055388e+07 
-1.8999999999999999e+00 -5.5251990653223781e-01 +7.2727839994368599e+00 +4.7095445619231358e+00 +3.5918928847112731e+01 +4.0706757934888572e+02 -6.1650848839216260e+05 +1.6084823982077332e+07 
-1.9500000000000000e+00 -5.5253377444711682e-01 +7.2735569661259989e+00 +4.6882775887676971e+00 +3.6634570531640449e+01 +5.3455756487910230e+02 -6.2114046981556667e+05 +1.5208029242433384e+07 
-2.0000000000000000e+00 -5.5254785776712545e-01 +7.2743406267746469e+00 +4.6664440381841237e+00 +3.7357695752133310e+01 +6.6920316915947933e+02 -6.2581631051558792e+05 +1.4290888649454195e+07 
-2.0499999999999998e+00 -5.5256227076784514e-01 +7.2751413215271636e+00 +4.6438865879631832e+00 +3.8093891208193114e+01 +8.1167405390197007e+02 -6.3057137093718455e+05 +1.3328459350927271e+07 
-2.1000000000000001e+00 -5.5257701144138316e-01 +7.2759588967848678e+00 +4.6206302640898889e+00 +3.8842678228306035e+01 +9.6149530984513206e+02 -6.3540150910072611e+05 +1.2323583644572519e+07 
-2.1499999999999999e+00 -5.5259207777983177e-01 +7.2767931989505534e+00 +4.5967000926219246e+00 +3.9603578084478464e+01 +1.1181920271443985e+03 -6.4030258252805867e+05 +1.1279103827589942e+07 
-2.2000000000000002e+00 -5.5260746777533565e-01 +7.2776440744280624e+00 +4.5721211020121153e+00 +4.0376112029456976e+01 +1.2812892305644020e+03 -6.4527044861169020e+05 +1.0197862643744349e+07 
-2.2500000000000000e+00 -5.5262317942005879e-01 +7.2785113696187365e+00 +4.5469183178994790e+00 +4.1159801424130180e+01 +1.4503120226308902e+03 -6.5030096560424229e+05 +9.0827022998159230e+06 
-2.2999999999999998e+00 -5.5263921070612732e-01 +7.2793949309248669e+00 +4.5211167667774763e+00 +4.1954167629187758e+01 +1.6247854790585338e+03 -6.5538999184028676e+05 +7.9364651987614455e+06 
-2.3500000000000001e+00 -5.5265555962575541e-01 +7.2802946047497912e+00 +4.4947414749405405e+00 +4.2758731951015783e+01 +1.8042346832395374e+03 -6.6053338510783145e+05 +6.7619936805994548e+06 
-2.3999999999999999e+00 -5.5267222417105766e-01 +7.2812102374936449e+00 +4.4678174726628752e+00 +4.3573015868493151e+01 +1.9881846091792850e+03 -6.6572700470658054e+05 +5.5621308325606687e+06 
-2.4500000000000002e+00 -5.5268920233424423e-01 +7.2821416755611095e+00 +4.4403697820269379e+00 +4.4396540670738460e+01 +2.1761604530872746e+03 -6.7096670832332829e+05 +4.3397182343149204e+06 
-2.5000000000000000e+00 -5.5270649210750100e-01 +7.2830887653542069e+00 +4.4124234334069996e+00 +4.5228827786120149e+01 +2.3676871850508878e+03 -6.7624835484609730e+05 +3.0975990017783879e+06 
-2.5499999999999998e+00 -5.5272409148302948e-01 +7.2840513532715487e+00 +4.3840034534141168e+00 +4.6069398786528339e+01 +2.5622898802724749e+03 -6.8156780430201220e+05 +1.8386155246358716e+06 
-2.6000000000000001e+00 -5.5274199845309169e-01 +7.2850292857174779e+00 +4.3551348688969309e+00 +4.6917775023592625e+01 +2.7594936014991808e+03 -6.8692091493841331e+05 +5.6561029879240075e+05 
-2.6499999999999999e+00 -5.5276021100985562e-01 +7.2860224090914594e+00 +4.3258427070783236e+00 +4.7773478065140139e+01 +2.9588234045643767e+03 -6.9230354675846058e+05 -7.1857414560325036e+05 
-2.7000000000000002e+00 -5.5277872714555232e-01 +7.2870305697949620e+00 +4.2961519952073335e+00 +4.8636029406229405e+01 +3.1598043448992935e+03 -6.9771155918667174e+05 -2.0110952781657041e+06 
-2.7500000000000000e+00 -5.5279754485244237e-01 +7.2880536142256052e+00 +4.2660877603019269e+00 +4.9504950724634760e+01 +3.3619614811798506e+03 -7.0314081319142599e+05 -3.3091105813857610e+06 
-2.7999999999999998e+00 -5.5281666212275937e-01 +7.2890913887824231e+00 +4.2356750320715726e+00 +5.0379763625649119e+01 +3.5648198009944454e+03 -7.0858716904408543e+05 -4.6097770633708034e+06 
-2.8500000000000001e+00 -5.5283607694876613e-01 +7.2901437398671236e+00 +4.2049388348762191e+00 +5.1259989652581801e+01 +3.7679044356011809e+03 -7.1404648666281987e+05 -5.9102527020517327e+06 
-2.8999999999999999e+00 -5.5285578732273799e-01 +7.2912105138767389e+00 +4.1739041989831529e+00 +5.2145150516740969e+01 +3.9707403542518950e+03 -7.1951462720644334e+05 -7.2076943717380110e+06 
-2.9500000000000002e+00 -5.5287579123688879e-01 +7.2922915572065028e+00 +4.1425961512638256e+00 +5.3034768031301034e+01 +4.1728526224899761e+03 -7.2498745273285557e+05 -8.4992596173448563e+06 
-3.0000000000000000e+00 -5.5289608668355084e-01 +7.2933867162541617e+00 +4.1110397203133511e+00 +5.3928363916443111e+01 +4.3737662531293299e+03 -7.3046082456508453e+05 -9.7821056052738298e+06 
-3.0499999999999998e+00 -5.5291667165500835e-01 +7.2944958374151625e+00 +4.0792599338713202e+00 +5.4825459994403936e+01 +4.5730062859788559e+03 -7.3593060484743619e+05 -1.1053389698348729e+07 
-3.1000000000000001e+00 -5.5293754414352669e-01 +7.2956187670833961e+00 +4.0472818201886946e+00 +5.5725578157142920e+01 +4.7700977454340273e+03 -7.4139265628426312e+05 -1.2310269153514391e+07 
-3.1499999999999999e+00 -5.5295870214146048e-01 +7.2967553516529557e+00 +4.0151304083706743e+00 +5.6628240295570812e+01 +4.9645656290847492e+03 -7.4684284158779855e+05 -1.3549901031576157e+07 
-3.2000000000000002e+00 -5.5298014364103532e-01 +7.2979054375178674e+00 +3.9828307265496394e+00 +5.7532968320779965e+01 +5.1559349675618432e+03 -7.5227702364388120e+05 -1.4769442645463273e+07 
-3.2500000000000000e+00 -5.5300186663458439e-01 +7.2990688710656535e+00 +3.9504078027072702e+00 +5.8439284402499908e+01 +5.3437307876309542e+03 -7.5769106743557937e+05 -1.5966051250789165e+07 
-3.2999999999999998e+00 -5.5302386911445800e-01 +7.3002454986926555e+00 +3.9178866664891348e+00 +5.9346710373962651e+01 +5.5274780763213503e+03 -7.6308083524572628e+05 -1.7136883859035298e+07 
-3.3500000000000001e+00 -5.5304614907297722e-01 +7.3014351667836994e+00 +3.8852923465052198e+00 +6.0254768528145981e+01 +5.7067018446190532e+03 -7.6844219306012557e+05 -1.8279097627554845e+07 
-3.3999999999999999e+00 -5.5306870450245094e-01 +7.3026377217283898e+00 +3.8526498728418423e+00 +6.1162980989150014e+01 +5.8809270644849439e+03 -7.7377100556144782e+05 -1.9389849455169350e+07 
-3.4500000000000002e+00 -5.5309153339523676e-01 +7.3038530099117853e+00 +3.8199842741017074e+00 +6.2070870051938790e+01 +6.0496787477774988e+03 -7.7906313876610412e+05 -2.0466296512440395e+07 
-3.5000000000000000e+00 -5.5311463374365422e-01 +7.3050808777217418e+00 +3.7873205803347938e+00 +6.2977957924437099e+01 +6.2124818681212309e+03 -7.8431445804910490e+05 -2.1505595712273911e+07 
-3.5499999999999998e+00 -5.5313800354003950e-01 +7.3063211715386833e+00 +3.7546838200444137e+00 +6.3883767099598160e+01 +6.3688614356581256e+03 -7.8952083104464202e+05 -2.2504904202190660e+07 
-3.6000000000000001e+00 -5.5316164077680152e-01 +7.3075737377490251e+00 +3.7220990235361420e+00 +6.4787819840946369e+01 +6.5183424176937551e+03 -7.9467812356459373e+05 -2.3461378859429613e+07 
-3.6499999999999999e+00 -5.5318554344622561e-01 +7.3088384227316139e+00 +3.6895912224874916e+00 +6.5689638734209055e+01 +6.6604497413936706e+03 -7.9978220406825095e+05 -2.4372176280740295e+07 
-3.6999999999999900e+00 -5.5320970954074422e-01 +7.3101150728654289e+00 +3.6571854458809119e+00 +6.6588746341978535e+01 +6.7947084054450015e+03 -8.0482894078462606e+05 -2.5234453543844622e+07 
-3.7499999999999898e+00 -5.5323413705264091e-01 +7.3114035345284414e+00 +3.6249067241748989e+00 +6.7484665293375926e+01 +6.9206433667733972e+03 -8.0981420254544483e+05 -2.6045367439296614e+07 
-3.7999999999999901e+00 -5.5325882397434589e-01 +7.3127036540980948e+00 +3.5927800889949735e+00 +6.8376918223683560e+01 +7.0377795561108514e+03 -8.1473385819064418e+05 -2.6802074598774485e+07 
-3.8499999999999899e+00 -5.5328376829822834e-01 +7.3140152779478145e+00 +3.5608305709513854e+00 +6.9265027943868276e+01 +7.1456419256779700e+03 -8.1958377803001669e+05 -2.7501731783791050e+07 
-3.8999999999999901e+00 -5.5330896801664142e-01 +7.3153382524488846e+00 +3.5290832016975746e+00 +7.0148517353779127e+01 +7.2437553999588918e+03 -8.2435983310413093e+05 -2.8141495567986410e+07 
-3.9499999999999900e+00 -5.5333442108700936e-01 +7.3166724243088943e+00 +3.4975616055708736e+00 +7.1026905222211354e+01 +7.3316800369612110e+03 -8.2905795340323867e+05 -2.8718737839456800e+07 
-3.9999999999999898e+00 -5.5336012505958077e-01 +7.3180176413733253e+00 +3.4662728407082843e+00 +7.1899606369409568e+01 +7.4093907073925002e+03 -8.3367457572801015e+05 -2.9233360198531438e+07 
-4.0499999999999901e+00 -5.5338607722112354e-01 +7.3193737509231926e+00 +3.4352131465571638e+00 +7.2765941474409814e+01 +7.4771345169113465e+03 -8.3820638625659642e+05 -2.9686918778597228e+07 
-4.0999999999999899e+00 -5.5341227485404221e-01 +7.3207406001695334e+00 +3.4043785820228951e+00 +7.3625228493682613e+01 +7.5351632116726332e+03 -8.4265007318891911e+05 -3.0080997550289303e+07 
-4.1499999999999897e+00 -5.5343871524083743e-01 +7.3221180363261569e+00 +3.3737652042554349e+00 +7.4476785273429940e+01 +7.5837285804510893e+03 -8.4700232389212796e+05 -3.0417180749396577e+07 
-4.1999999999999904e+00 -5.5346539566388653e-01 +7.3235059066062176e+00 +3.3433690715859656e+00 +7.5319929657085211e+01 +7.6230823869171427e+03 -8.5125982560054271e+05 -3.0697052472646806e+07 
-4.2499999999999902e+00 -5.5349231340564520e-01 +7.3249040582209135e+00 +3.3131862420032432e+00 +7.6153979554706098e+01 +7.6534764033233132e+03 -8.5541926611229940e+05 -3.0922196866602730e+07 
-4.2999999999999901e+00 -5.5351946574850985e-01 +7.3263123383844633e+00 +3.2832127724495184e+00 +7.6978252755065228e+01 +7.6751624328299004e+03 -8.5947733226250380e+05 -3.1094198300932243e+07 
-4.3499999999999899e+00 -5.5354684997492132e-01 +7.3277305943079289e+00 +3.2534447224395064e+00 +7.7792067142043251e+01 +7.6883922137311838e+03 -8.6343071159876115e+05 -3.1214640721168771e+07 
-4.3999999999999897e+00 -5.5357446336733851e-01 +7.3291586732055274e+00 +3.2238781505684022e+00 +7.8594740452112134e+01 +7.6934175051919729e+03 -8.6727609043360269e+05 -3.1285108197812039e+07 
-4.4499999999999904e+00 -5.5360230320819093e-01 +7.3305964222866242e+00 +3.1945091146415416e+00 +7.9385590623606333e+01 +7.6904900936543372e+03 -8.7101015679911000e+05 -3.1307185011466336e+07 
-4.4999999999999902e+00 -5.5363036677986277e-01 +7.3320436887658920e+00 +3.1653336739895321e+00 +8.0163935334541478e+01 +7.6798617261061663e+03 -8.7462959647454182e+05 -3.1282455178633261e+07 
-4.5499999999999901e+00 -5.5365865136489523e-01 +7.3335003198538296e+00 +3.1363478873133643e+00 +8.0929092422457472e+01 +7.6617841682766302e+03 -8.7813109657591546e+05 -3.1212502848883986e+07 
-4.5999999999999899e+00 -5.5368715424558756e-01 +7.3349661627658653e+00 +3.1075478132608123e+00 +8.1680379514795703e+01 +7.6365091896491831e+03 -8.8151134249730129e+05 -3.1098912206990302e+07 
-4.6499999999999897e+00 -5.5371587270446265e-01 +7.3364410647099536e+00 +3.0789295124097928e+00 +8.2417114503793030e+01 +7.6042885095800102e+03 -8.8476702173903130e+05 -3.0943267103651680e+07 
-4.6999999999999904e+00 -5.5374480402393722e-01 +7.3379248728987916e+00 +3.0504890411383663e+00 +8.3138615084620028e+01 +7.5653739615171689e+03 -8.8789482022793347e+05 -3.0747152164344739e+07 
-4.7499999999999902e+00 -5.5377394548644487e-01 +7.3394174345445631e+00 +3.0222224633949142e+00 +8.3844198927480761e+01 +7.5200171800627249e+03 -8.9089142356621090e+05 -3.0512150689872175e+07 
-4.7999999999999901e+00 -5.5380329437442433e-01 +7.3409185968601687e+00 +2.9941258351419981e+00 +8.4533183674082636e+01 +7.4684700162543168e+03 -8.9375351721234270e+05 -3.0239847447037425e+07 
-4.8499999999999899e+00 -5.5383284797034760e-01 +7.3424282070567264e+00 +2.9661952185481137e+00 +8.5204887004672699e+01 +7.4109841559280130e+03 -8.9647778687520511e+05 -2.9931826093602885e+07 
-4.8999999999999897e+00 -5.5386260355653372e-01 +7.3439461123437670e+00 +2.9384266726914792e+00 +8.5858626631972143e+01 +7.3478113687661726e+03 -8.9906091846612026e+05 -2.9589670853260975e+07 
-4.9499999999999904e+00 -5.5389235604129350e-01 +7.3454618489945886e+00 +2.9110020567765997e+00 +8.6489499399063519e+01 +7.2796831611829302e+03 -9.0148366605204507e+05 -2.9217594860223703e+07 
-4.9999999999999902e+00 -5.5392230246580232e-01 +7.3469854688336627e+00 +2.8837295940332868e+00 +8.7101307524296899e+01 +7.2064393716966651e+03 -9.0376065051529254e+05 -2.8814957922987878e+07 
-5.0499999999999901e+00 -5.5395244016700818e-01 +7.3485168221411312e+00 +2.8566054215645864e+00 +8.7693382242354957e+01 +7.1283267515799498e+03 -9.0588862282569834e+05 -2.8383312734859034e+07 
