# multipoles
# s[mm] polynom_b[n=0][T/m^n] polynom_b[n=1][T/m^n] polynom_b[n=2][T/m^n] polynom_b[n=3][T/m^n] polynom_b[n=4][T/m^n] polynom_b[n=5][T/m^n] polynom_b[n=6][T/m^n] 
+0.0000000000000000e+00 -5.2358461253953847e-01 +6.8808653548037357e+00 +5.0612913525462879e+00 -2.6132215985589607e+01 +5.3487816963978385e+03 -2.7742536327681597e+05 -3.3491824092334997e+07 
+5.0000000000000003e-02 -5.2358634600528742e-01 +6.8808827244291457e+00 +5.0646368156116308e+00 -2.5964566254937083e+01 +5.3075604534189260e+03 -2.7857536063187075e+05 -3.3318083130981322e+07 
+1.0000000000000001e-01 -5.2358844217637113e-01 +6.8809197343992183e+00 +5.0677186674710608e+00 -2.5799768170317002e+01 +5.2639015784702742e+03 -2.7964220732704888e+05 -3.3134763596226078e+07 
+1.5000000000000002e-01 -5.2359090018701304e-01 +6.8809763317183101e+00 +5.0705280139795104e+00 -2.5637555910327883e+01 +5.2179605047691757e+03 -2.8062950933885999e+05 -3.2942562763011690e+07 
+2.0000000000000001e-01 -5.2359371917146269e-01 +6.8810524633934884e+00 +5.0730559623105371e+00 -2.5477663749390160e+01 +5.1698926291236403e+03 -2.8154087180179259e+05 -3.2742177655191392e+07 
+2.5000000000000000e-01 -5.2359689826398248e-01 +6.8811480764283024e+00 +5.0752936186764357e+00 -2.5319825793207016e+01 +5.1198533785564787e+03 -2.8237990121884958e+05 -3.2534305520242803e+07 
+2.9999999999999999e-01 -5.2360043659886379e-01 +6.8812631178298114e+00 +5.0772320915709965e+00 -2.5163776263649194e+01 +5.0679981160379948e+03 -2.8315020314444712e+05 -3.2319643165090196e+07 
+3.4999999999999998e-01 -5.2360433331038136e-01 +6.8813975346040142e+00 +5.0788624839487762e+00 -2.5009249321879683e+01 +5.0144823520586806e+03 -2.8385538358761318e+05 -3.2098888387092896e+07 
+3.9999999999999997e-01 -5.2360858753286066e-01 +6.8815512737569930e+00 +5.0801759044710373e+00 -2.4855979100795309e+01 +4.9594614443513328e+03 -2.8449904879545479e+05 -3.1872737957623105e+07 
+4.4999999999999996e-01 -5.2361319840064013e-01 +6.8817242822974629e+00 +5.0811634613357048e+00 -2.4703699823149204e+01 +4.9030907629678550e+03 -2.8508480426155846e+05 -3.1641888731496640e+07 
+4.9999999999999994e-01 -5.2361816504805647e-01 +6.8819165072335950e+00 +5.0818162594421965e+00 -2.4552145654157300e+01 +4.8455257678198186e+03 -2.8561625596684846e+05 -3.1407038177324846e+07 
+5.4999999999999993e-01 -5.2362348660946212e-01 +6.8821278955720535e+00 +5.0821254036999743e+00 -2.4401050685167199e+01 +4.7869219161892543e+03 -2.8609701044232358e+05 -3.1168883735554803e+07 
+5.9999999999999998e-01 -5.2362916221925759e-01 +6.8823583943232460e+00 +5.0820820044261694e+00 -2.4250149126805233e+01 +4.7274345214505429e+03 -2.8653067327828112e+05 -3.0928121883572027e+07 
+6.5000000000000002e-01 -5.2363519101182088e-01 +6.8826079504976123e+00 +5.0816771655144528e+00 -2.4099175166422999e+01 +4.6672190680313724e+03 -2.8692085023818887e+05 -3.0685450249181110e+07 
+7.0000000000000007e-01 -5.2364157212156981e-01 +6.8828765111049464e+00 +5.0809019947638294e+00 -2.3947862941866024e+01 +4.6064309358746777e+03 -2.8727114748602116e+05 -3.0441565755862527e+07 
+7.5000000000000011e-01 -5.2364830468293566e-01 +6.8831640231572067e+00 +5.0797475994853993e+00 -2.3795946651592651e+01 +4.5452255174463571e+03 -2.8758517069223913e+05 -3.0197165410432063e+07 
+8.0000000000000016e-01 -5.2365538783035981e-01 +6.8834704336649120e+00 +5.0782050859471086e+00 -2.3643160414231009e+01 +4.4837582356919165e+03 -2.8786652616753656e+05 -2.9952946436261058e+07 
+8.5000000000000020e-01 -5.2366282069829106e-01 +6.8837956896407970e+00 +5.0762655591494941e+00 -2.3489238403029020e+01 +4.4221845436775038e+03 -2.8811881980684400e+05 -2.9709606244344797e+07 
+9.0000000000000024e-01 -5.2367060242121899e-01 +6.8841397380995604e+00 +5.0739201282464856e+00 -2.3333914853819092e+01 +4.3606597846728873e+03 -2.8834565697433648e+05 -2.9467841513165139e+07 
+9.5000000000000029e-01 -5.2367873213362692e-01 +6.8845025260541659e+00 +5.0711598985158419e+00 -2.3176923894439536e+01 +4.2993394069834749e+03 -2.8855064395556488e+05 -2.9228349633148678e+07 
+1.0000000000000002e+00 -5.2368720897001642e-01 +6.8848840005208780e+00 +5.0679759759080891e+00 -2.3017999776839851e+01 +4.2383788390492282e+03 -2.8873738596423174e+05 -2.8991827854619339e+07 
+1.0500000000000003e+00 -5.2369603206492243e-01 +6.8852841085126224e+00 +5.0643594693743408e+00 -2.2856876574376397e+01 +4.1779334267432077e+03 -2.8890948975877505e+05 -2.8758972862430848e+07 
+1.1000000000000003e+00 -5.2370520055286951e-01 +6.8857027970485376e+00 +5.0603014829710746e+00 -2.2693288593663592e+01 +4.1181586539904010e+03 -2.8907056015533756e+05 -2.8530482298709668e+07 
+1.1500000000000004e+00 -5.2371471356841470e-01 +6.8861400131451900e+00 +5.0557931240971881e+00 -2.2526970006032467e+01 +4.0592099094403361e+03 -2.8922420310759271e+05 -2.8307053141530313e+07 
+1.2000000000000004e+00 -5.2372457024613150e-01 +6.8865957038203875e+00 +5.0508255005561526e+00 -2.2357655006085707e+01 +4.0012425697052431e+03 -2.8937402439522487e+05 -2.8089382284704838e+07 
+1.2500000000000004e+00 -5.2373476972058808e-01 +6.8870698160933301e+00 +5.0453897159799768e+00 -2.2185077821747356e+01 +3.9444121275880539e+03 -2.8952362951973389e+05 -2.7878167418980505e+07 
+1.3000000000000005e+00 -5.2374531112640110e-01 +6.8875622969846688e+00 +5.0394768800368688e+00 -2.2008972700284854e+01 +3.8888739120554028e+03 -2.8967662388805556e+05 -2.7674105124882258e+07 
+1.3500000000000005e+00 -5.2375619359816761e-01 +6.8880730935144943e+00 +5.0330780963443154e+00 -2.1829073854519489e+01 +3.8347834134845284e+03 -2.8983661314597214e+05 -2.7477893064884733e+07 
+1.4000000000000006e+00 -5.2376741627052059e-01 +6.8886021527057508e+00 +5.0261844720940179e+00 -2.1645115573197138e+01 +3.7822960278551709e+03 -2.9000720238755940e+05 -2.7290228273253642e+07 
+1.4500000000000006e+00 -5.2377897827811204e-01 +6.8891494215804228e+00 +5.0187871150486831e+00 -2.1456832073406940e+01 +3.7315671354008314e+03 -2.9019199731906998e+05 -2.7111807673202917e+07 
+1.5000000000000007e+00 -5.2379087875559116e-01 +6.8897148471645195e+00 +5.0108771300739487e+00 -2.1263957720691558e+01 +3.6827521932011800e+03 -2.9039460241790581e+05 -2.6943328703822169e+07 
+1.5500000000000007e+00 -5.2380311683763359e-01 +6.8902983764797909e+00 +5.0024456237213704e+00 -2.1066226669605065e+01 +3.6360066158492864e+03 -2.9061862394093134e+05 -2.6785488526187837e+07 
+1.6000000000000008e+00 -5.2381569165891972e-01 +6.8908999565537252e+00 +4.9934837012007884e+00 -2.0863373275818581e+01 +3.5914858488418140e+03 -2.9086766654257785e+05 -2.6638984488836151e+07 
+1.6500000000000008e+00 -5.2382860235416173e-01 +6.8915195344140274e+00 +4.9839824704325260e+00 -2.0655131875848351e+01 +3.5493452684002145e+03 -2.9114533504965529e+05 -2.6504513487387817e+07 
+1.7000000000000008e+00 -5.2384184805807044e-01 +6.8921570570872337e+00 +4.9739330363986616e+00 -2.0441236741546351e+01 +3.5097403298531931e+03 -2.9145523481142247e+05 -2.6382772948479012e+07 
+1.7500000000000009e+00 -5.2385542790537210e-01 +6.8928124716052466e+00 +4.9633265039779282e+00 -2.0221422316700536e+01 +3.4728264942452147e+03 -2.9180096986037266e+05 -2.6274460348306298e+07 
+1.8000000000000009e+00 -5.2386934103082095e-01 +6.8934857249959345e+00 +4.9521539811092019e+00 -1.9995422851226092e+01 +3.4387591327357436e+03 -2.9218614584517240e+05 -2.6180272526500020e+07 
+1.8500000000000010e+00 -5.2388358656917511e-01 +6.8941767642919602e+00 +4.9404065732839246e+00 -1.9762972772810937e+01 +3.4076936883212020e+03 -2.9261436695624661e+05 -2.6100906827145725e+07 
+1.9000000000000010e+00 -5.2389816365520070e-01 +6.8948855365248685e+00 +4.9280753849374719e+00 -1.9523806420439659e+01 +3.3797856318530335e+03 -2.9308923818846780e+05 -2.6037060782263491e+07 
+1.9500000000000011e+00 -5.2391307142368904e-01 +6.8956119887308898e+00 +4.9151515226269975e+00 -1.9277658300804845e+01 +3.3551903744823067e+03 -2.9361436317603098e+05 -2.5989431505574558e+07 
+2.0000000000000009e+00 -5.2392830900944254e-01 +6.8963560679436942e+00 +4.9016260919305168e+00 -1.9024262779318903e+01 +3.3340633569226147e+03 -2.9419334676675440e+05 -2.5958716321220051e+07 
+2.0500000000000007e+00 -5.2394387536709230e-01 +6.8971177056499995e+00 +4.8874926242483143e+00 -1.8763397939829627e+01 +3.3165359826881149e+03 -2.9482916602576198e+05 -2.5945531840400133e+07 
+2.1000000000000005e+00 -5.2395976873065941e-01 +6.8978967661786754e+00 +4.8727548067837168e+00 -1.8495065942751779e+01 +3.3026441557548305e+03 -2.9552200381672074e+05 -2.5950184675507784e+07 
+2.1500000000000004e+00 -5.2397598715408789e-01 +6.8986930958247425e+00 +4.8574189943859052e+00 -1.8219338020365736e+01 +3.2923999419779816e+03 -2.9627127282629570e+05 -2.5972906177366175e+07 
+2.2000000000000002e+00 -5.2399252869132162e-01 +6.8995065408844063e+00 +4.8414915397541467e+00 -1.7936285434331239e+01 +3.2858154662805564e+03 -2.9707638553659513e+05 -2.6013928095634270e+07 
+2.2500000000000000e+00 -5.2400939139633551e-01 +6.9003369476539911e+00 +4.8249787987078614e+00 -1.7645979433194505e+01 +3.2829027730145945e+03 -2.9793675454506685e+05 -2.6073481650216788e+07 
+2.2999999999999998e+00 -5.2402657332307656e-01 +6.9011841624322035e+00 +4.8078871205424489e+00 -1.7348491357336165e+01 +3.2836740801450323e+03 -2.9885179166087561e+05 -2.6151799225870986e+07 
+2.3499999999999996e+00 -5.2404407252553398e-01 +6.9020480315170172e+00 +4.7902228602267733e+00 -1.7043892492668256e+01 +3.2881414500056203e+03 -2.9982090917187394e+05 -2.6249112145918913e+07 
+2.3999999999999995e+00 -5.2406188705769308e-01 +6.9029284012067338e+00 +4.7719923697526507e+00 -1.6732254129111290e+01 +3.2963170302202470e+03 -3.0084351931960182e+05 -2.6365652328191821e+07 
+2.4499999999999993e+00 -5.2408001497355883e-01 +6.9038251178005448e+00 +4.7532020029356561e+00 -1.6413647585801872e+01 +3.3082129174063757e+03 -3.0191903407399642e+05 -2.6501651340732493e+07 
+2.4999999999999991e+00 -5.2409845432714608e-01 +6.9047380275983246e+00 +4.7338581134299256e+00 -1.6088144194015861e+01 +3.3238412126079270e+03 -3.0304686531324725e+05 -2.6657340779989686e+07 
+2.5499999999999989e+00 -5.2411720317245747e-01 +6.9056669768997336e+00 +4.7139670513249481e+00 -1.5755815263828195e+01 +3.3432141102031719e+03 -3.0422642509369191e+05 -2.6832952862761654e+07 
+2.5999999999999988e+00 -5.2413625956353338e-01 +6.9066118120074504e+00 +4.6935351714582936e+00 -1.5416732221395691e+01 +3.3663436788745757e+03 -3.0545712448748056e+05 -2.7028718968377460e+07 
+2.6499999999999986e+00 -5.2415562155441497e-01 +6.9075723792187373e+00 +4.6725688267633423e+00 -1.5070966260559812e+01 +3.3932420412797769e+03 -3.0673837647306203e+05 -2.7244870847300936e+07 
+2.6999999999999984e+00 -5.2417528719914142e-01 +6.9085485248381264e+00 +4.6510743689661904e+00 -1.4718588860011696e+01 +3.4239213470054960e+03 -3.0806959169603046e+05 -2.7481640415267192e+07 
+2.7499999999999982e+00 -5.2419525455178140e-01 +6.9095400951641572e+00 +4.6290581525656522e+00 -1.4359671250867864e+01 +3.4583936756505477e+03 -3.0945018278799206e+05 -2.7739259129349537e+07 
+2.7999999999999980e+00 -5.2421552166638929e-01 +6.9105469365014445e+00 +4.6065265283940047e+00 -1.3994284904638880e+01 +3.4966712042972267e+03 -3.1087956040729507e+05 -2.8017959101866063e+07 
+2.8499999999999979e+00 -5.2423608659704246e-01 +6.9115688951522882e+00 +4.5834858497659070e+00 -1.3622501187775281e+01 +3.5387660422080635e+03 -3.1235713606870611e+05 -2.8317971984278824e+07 
+2.8999999999999977e+00 -5.2425694739782380e-01 +6.9126058174175569e+00 +4.5599424695831710e+00 -1.3244391406037590e+01 +3.5846903103648569e+03 -3.1388232174905640e+05 -2.8639529511406038e+07 
+2.9499999999999975e+00 -5.2427810212282766e-01 +6.9136575496023793e+00 +4.5359027411587123e+00 -1.2860027031847213e+01 +3.6344561182328125e+03 -3.1545452805745043e+05 -2.8982863335085526e+07 
+2.9999999999999973e+00 -5.2429954882614827e-01 +6.9147239380083958e+00 +4.5113730162747192e+00 -1.2469479388091509e+01 +3.6880756182703444e+03 -3.1707316681156092e+05 -2.9348205406980995e+07 
+3.0499999999999972e+00 -5.2432128556188518e-01 +6.9158048289406739e+00 +4.4863596465173954e+00 -1.2072819934983990e+01 +3.7455609660777927e+03 -3.1873764868409821e+05 -2.9735787692172624e+07 
+3.0999999999999970e+00 -5.2434331038416093e-01 +6.9169000687017750e+00 +4.4608689859444750e+00 -1.1670120034643102e+01 +3.8069242536140873e+03 -3.2044738510286878e+05 -3.0145841737591147e+07 
+3.1499999999999968e+00 -5.2436562134708875e-01 +6.9180095035958313e+00 +4.4349073860637436e+00 -1.1261451100726044e+01 +3.8721776377114761e+03 -3.2220178708360263e+05 -3.0578599514843803e+07 
+3.1999999999999966e+00 -5.2438821650480050e-01 +6.9191329799275110e+00 +4.4084812000331466e+00 -1.0846884576058477e+01 +3.9413332329912801e+03 -3.2400026535055495e+05 -3.1034292717155907e+07 
+3.2499999999999964e+00 -5.2441109391143037e-01 +6.9202703440009650e+00 +4.3815967803333304e+00 -1.0426491866176377e+01 +4.0144031716571885e+03 -3.2584223096903379e+05 -3.1513153155940611e+07 
+3.2999999999999963e+00 -5.2443425162111235e-01 +6.9214214421212006e+00 +4.3542604781820282e+00 -1.0000344428903119e+01 +4.0913996224603588e+03 -3.2772709447597200e+05 -3.2015412901012506e+07 
+3.3499999999999961e+00 -5.2445768768800460e-01 +6.9225861205925581e+00 +4.3264786479482060e+00 -9.5685136847368337e+00 +4.1723346656660597e+03 -3.2965426673445001e+05 -3.2541303407758281e+07 
+3.3999999999999959e+00 -5.2448140016624689e-01 +6.9237642257197081e+00 +4.2982576394825962e+00 -9.1310710722473676e+00 +4.2572205081937982e+03 -3.3162315841321944e+05 -3.3091057011069108e+07 
+3.4499999999999957e+00 -5.2450538711000971e-01 +6.9249556038096705e+00 +4.2696038074474361e+00 -8.6880881259222207e+00 +4.3460692193640634e+03 -3.3363317937790550e+05 -3.3664905081768028e+07 
+3.4999999999999956e+00 -5.2452964657345058e-01 +6.9261601011643350e+00 +4.2405235026854591e+00 -8.2396361761089292e+00 +4.4388929805317530e+03 -3.3568374112426088e+05 -3.4263079787301727e+07 
+3.5499999999999954e+00 -5.2455417661074211e-01 +6.9273775640903557e+00 +4.2110230779901485e+00 -7.7857867470511506e+00 +4.5357039133801763e+03 -3.3777425354180450e+05 -3.4885812861534797e+07 
+3.5999999999999952e+00 -5.2457897527605379e-01 +6.9286078388942043e+00 +4.1811088845877515e+00 -7.3266113598949287e+00 +4.6365141856263244e+03 -3.3990412651712418e+05 -3.5533336366620369e+07 
+3.6499999999999950e+00 -5.2460404062357946e-01 +6.9298507718786482e+00 +4.1507872769356391e+00 -6.8621813932220137e+00 +4.7413358792171284e+03 -3.4207277104570228e+05 -3.6205881792291097e+07 
+3.6999999999999948e+00 -5.2462937070749460e-01 +6.9311062093517268e+00 +4.1200646055483441e+00 -6.3925684427666276e+00 +4.8501811781369497e+03 -3.4427959633616987e+05 -3.6903681298047043e+07 
+3.7499999999999947e+00 -5.2465496358198704e-01 +6.9323739976158070e+00 +4.0889472220851664e+00 -5.9178438739014245e+00 +4.9630622415610433e+03 -3.4652401345960790e+05 -3.7626966904092714e+07 
+3.7999999999999945e+00 -5.2468081730125615e-01 +6.9336539829779333e+00 +4.0574414798324803e+00 -5.4380792629056742e+00 +5.0799911766765845e+03 -3.4880543167369178e+05 -3.8375970245534040e+07 
+3.8499999999999943e+00 -5.2470692991949164e-01 +6.9349460117436870e+00 +4.0255537292619650e+00 -4.9533461204365237e+00 +5.2009801727270178e+03 -3.5112326078791241e+05 -3.9150923537708834e+07 
+3.8999999999999941e+00 -5.2473329949090630e-01 +6.9362499302177065e+00 +3.9932903242044140e+00 -4.4637159357643386e+00 +5.3260413286353960e+03 -3.5347691071376123e+05 -3.9952058388405949e+07 
+3.9499999999999940e+00 -5.2475992406970262e-01 +6.9375655847038260e+00 +3.9606576161829992e+00 -3.9692601708313422e+00 +5.4551868021363352e+03 -3.5586579156316235e+05 -4.0779606788780153e+07 
+3.9999999999999938e+00 -5.2478680171008674e-01 +6.9388928215095724e+00 +3.9276619563589166e+00 -3.4700504399798500e+00 +5.5884287647907358e+03 -3.5828931214721251e+05 -4.1633800836047471e+07 
+4.0499999999999936e+00 -5.2481393037447321e-01 +6.9402314863028174e+00 +3.8943113884714373e+00 -2.9662344533784557e+00 +5.7257358935556531e+03 -3.6074632068474480e+05 -4.2514574342491552e+07 
+4.0999999999999934e+00 -5.2484130765874426e-01 +6.9415814158940377e+00 +3.8606209314403990e+00 -2.4582303154075351e+00 +5.8669030037696130e+03 -3.6323377091751067e+05 -4.3420669410807446e+07 
+4.1499999999999932e+00 -5.2486893106731691e-01 +6.9429424433006410e+00 +3.8266074221495003e+00 -1.9465158009648849e+00 +6.0116812921783767e+03 -3.6574823166037083e+05 -4.4350528903200634e+07 
+4.1999999999999931e+00 -5.2489679810465206e-01 +6.9443144015395353e+00 +3.7922877051300095e+00 -1.4315686720569372e+00 +6.1598217485953619e+03 -3.6828627193457237e+05 -4.5302594273351632e+07 
+4.2499999999999929e+00 -5.2492490627517663e-01 +6.9456971236217937e+00 +3.7576786181446469e+00 -9.1386647240609054e-01 +6.3110755497387991e+03 -3.7084446250639844e+05 -4.6275308253336862e+07 
+4.2999999999999927e+00 -5.2495325308333174e-01 +6.9470904425642086e+00 +3.7227970018673178e+00 -3.9388698818725359e-01 +6.4651937895313258e+03 -3.7341937216806837e+05 -4.7267113001597583e+07 
+4.3499999999999925e+00 -5.2498183603356630e-01 +6.9484941913812248e+00 +3.6876596976203770e+00 +1.2789209025634990e-01 +6.6219275492413308e+03 -3.7600757055052643e+05 -4.8276450608081199e+07 
+4.3999999999999924e+00 -5.2501065263032132e-01 +6.9499082030837185e+00 +3.6522835456901710e+00 +6.5099318290424801e-01 +6.7810279327340149e+03 -3.7860562809513824e+05 -4.9301763294346049e+07 
+4.4499999999999922e+00 -5.2503970037804482e-01 +6.9513323106819671e+00 +3.6166853870772466e+00 +1.1749387388560160e+00 +6.9422460314996952e+03 -3.8121011555460939e+05 -5.0341493227116540e+07 
+4.4999999999999920e+00 -5.2506897678118114e-01 +6.9527663471885370e+00 +3.5808820626322322e+00 +1.6992510991229266e+00 +7.1053329345140719e+03 -3.8381760279917787e+05 -5.1394082529998869e+07 
+4.5499999999999918e+00 -5.2509847934417953e-01 +6.9542101456132315e+00 +3.5448904133110917e+00 +2.2234526866840003e+00 +7.2700397359579283e+03 -3.8642466030784213e+05 -5.2457973391413771e+07 
+4.5999999999999917e+00 -5.2512820557148654e-01 +6.9556635389629990e+00 +3.5087272804715171e+00 +2.7470660455434239e+00 +7.4361175113479103e+03 -3.8902785962941003e+05 -5.3531607844383419e+07 
+4.6499999999999915e+00 -5.2515815296755619e-01 +6.9571263602463844e+00 +3.4724095064272693e+00 +3.2696136288873316e+00 +7.6033173150322827e+03 -3.9162377153061365e+05 -5.4613427797179088e+07 
+4.6999999999999913e+00 -5.2518831903683427e-01 +6.9585984424703780e+00 +3.4359539319216550e+00 +3.7906179373339137e+00 +7.7713902477910042e+03 -3.9420896718451270e+05 -5.5701875487062521e+07 
+4.7499999999999911e+00 -5.2521870128376325e-01 +6.9600796186395320e+00 +3.3993773981094981e+00 +4.3096015523551454e+00 +7.9400873891173560e+03 -3.9678001840728894e+05 -5.6795392967780247e+07 
+4.7999999999999909e+00 -5.2524929721280356e-01 +6.9615697217579848e+00 +3.3626967488595256e+00 +4.8260870543679921e+00 +8.1091597558407511e+03 -3.9933349702548527e+05 -5.7892421911193743e+07 
+4.8499999999999908e+00 -5.2528010432838990e-01 +6.9630685848295695e+00 +3.3259288239639875e+00 +5.3395970267562491e+00 +8.2783584692806980e+03 -4.0186597491651791e+05 -5.8991404672403656e+07 
+4.8999999999999906e+00 -5.2531112013498060e-01 +6.9645760408555395e+00 +3.2890904677033150e+00 +5.8496541257284704e+00 +8.4474345347600029e+03 -4.0437402451326686e+05 -6.0090782846000597e+07 
+4.9499999999999904e+00 -5.2534234213701481e-01 +6.9660919228358908e+00 +3.2521985214874971e+00 +6.3557810457975741e+00 +8.6161390283365272e+03 -4.0685421859585831e+05 -6.1188998473053411e+07 
+4.9999999999999902e+00 -5.2537376783894219e-01 +6.9676160637716746e+00 +3.2152698285332946e+00 +6.8575004178501917e+00 +8.7842229869411713e+03 -4.0930312941906735e+05 -6.2284493372264534e+07 
+5.0499999999999901e+00 -5.2540539474519854e-01 +6.9691482966589495e+00 +3.1783212307181219e+00 +7.3543350585784957e+00 +8.9514374752628319e+03 -4.1171733078191197e+05 -6.3375709514739141e+07 
