# field on trajectory
# s[mm] rx[mm] ry[mm] rz[mm] bx[T] by[T] bz[T]
0.0000000000000000e+00 +8.5269999999999992e+00 +0.0000000000000000e+00 +0.0000000000000000e+00 -3.2384901150277999e-02 -5.7851280867398536e-01 +5.8630426372469173e-03
5.0000000000000003e-02 +8.5269999309100495e+00 +0.0000000000000000e+00 +4.9999999999936345e-02 -3.2384508575678005e-02 -5.7851229113182778e-01 +5.8624313793823168e-03
1.0000000000000001e-01 +8.5269997236402677e+00 +0.0000000000000000e+00 +9.9999999999490830e-02 -3.2384133727198644e-02 -5.7851214575006926e-01 +5.8618219509927478e-03
1.5000000000000002e-01 +8.5269993781906894e+00 +0.0000000000000000e+00 +1.4999999999828156e-01 -3.2383776820269931e-02 -5.7851237185892168e-01 +5.8612144832101394e-03
2.0000000000000001e-01 +8.5269988945612614e+00 +0.0000000000000000e+00 +1.9999999999592669e-01 -3.2383438070322561e-02 -5.7851296878861658e-01 +5.8606091071664312e-03
2.5000000000000000e-01 +8.5269982727518396e+00 +0.0000000000000000e+00 +2.4999999999204431e-01 -3.2383117692787934e-02 -5.7851393586940203e-01 +5.8600059539935844e-03
2.9999999999999999e-01 +8.5269975127621933e+00 +0.0000000000000000e+00 +2.9999999998625254e-01 -3.2382815903098175e-02 -5.7851527243154510e-01 +5.8594051548235999e-03
3.4999999999999998e-01 +8.5269966145920044e+00 +0.0000000000000000e+00 +3.4999999997816955e-01 -3.2382532916686170e-02 -5.7851697780533007e-01 +5.8588068407885293e-03
3.9999999999999997e-01 +8.5269955782408644e+00 +0.0000000000000000e+00 +3.9999999996741342e-01 -3.2382268948985542e-02 -5.7851905132105830e-01 +5.8582111430204968e-03
4.4999999999999996e-01 +8.5269944037082777e+00 +0.0000000000000000e+00 +4.4999999995360224e-01 -3.2382024215430863e-02 -5.7852149230905026e-01 +5.8576181926517142e-03
4.9999999999999994e-01 +8.5269930909936633e+00 +0.0000000000000000e+00 +4.9999999993635413e-01 -3.2381798931457401e-02 -5.7852430009964195e-01 +5.8570281208144932e-03
5.4999999999999993e-01 +8.5269916400963481e+00 +0.0000000000000000e+00 +5.4999999991528714e-01 -3.2381593312501414e-02 -5.7852747402318838e-01 +5.8564410586412555e-03
5.9999999999999998e-01 +8.5269900510155754e+00 +0.0000000000000000e+00 +5.9999999989001940e-01 -3.2381407574000029e-02 -5.7853101341006097e-01 +5.8558571372645685e-03
6.5000000000000002e-01 +8.5269883237504995e+00 +0.0000000000000000e+00 +6.4999999986016899e-01 -3.2381241931391323e-02 -5.7853491759064835e-01 +5.8552764878171395e-03
7.0000000000000007e-01 +8.5269864583001880e+00 +0.0000000000000000e+00 +6.9999999982535399e-01 -3.2381096600114352e-02 -5.7853918589535802e-01 +5.8546992414318429e-03
7.5000000000000011e-01 +8.5269844546636211e+00 +0.0000000000000000e+00 +7.4999999978519249e-01 -3.2380971795609156e-02 -5.7854381765461227e-01 +5.8541255292417346e-03
8.0000000000000016e-01 +8.5269823128396940e+00 +0.0000000000000000e+00 +7.9999999973930247e-01 -3.2380867733316845e-02 -5.7854881219885157e-01 +5.8535554823800672e-03
8.5000000000000020e-01 +8.5269800328272130e+00 +0.0000000000000000e+00 +8.4999999968730200e-01 -3.2380784628679549e-02 -5.7855416885853350e-01 +5.8529892319802981e-03
9.0000000000000024e-01 +8.5269776146248972e+00 +0.0000000000000000e+00 +8.9999999962880906e-01 -3.2380722697140513e-02 -5.7855988696413252e-01 +5.8524269091761181e-03
9.5000000000000029e-01 +8.5269750582313826e+00 +0.0000000000000000e+00 +9.4999999956344161e-01 -3.2380682154144122e-02 -5.7856596584613895e-01 +5.8518686451014676e-03
1.0000000000000002e+00 +8.5269723636452159e+00 +0.0000000000000000e+00 +9.9999999949081775e-01 -3.2380663215135906e-02 -5.7857240483506145e-01 +5.8513145708905343e-03
1.0500000000000003e+00 +8.5269695308648608e+00 +0.0000000000000000e+00 +1.0499999994105553e+00 -3.2380666095562553e-02 -5.7857920326142420e-01 +5.8507648176777845e-03
1.1000000000000003e+00 +8.5269665598886917e+00 +0.0000000000000000e+00 +1.0999999993222724e+00 -3.2380691010872042e-02 -5.7858636045576828e-01 +5.8502195165979808e-03
1.1500000000000004e+00 +8.5269634507149998e+00 +0.0000000000000000e+00 +1.1499999992255869e+00 -3.2380738176513525e-02 -5.7859387574865151e-01 +5.8496787987861844e-03
1.2000000000000004e+00 +8.5269602033419911e+00 +0.0000000000000000e+00 +1.1999999991201167e+00 -3.2380807807937430e-02 -5.7860174847064738e-01 +5.8491427953777835e-03
1.2500000000000004e+00 +8.5269568177677844e+00 +0.0000000000000000e+00 +1.2499999990054795e+00 -3.2380900120595579e-02 -5.7860997795234725e-01 +5.8486116375085061e-03
1.3000000000000005e+00 +8.5269532939904131e+00 +0.0000000000000000e+00 +1.2999999988812936e+00 -3.2381015329941046e-02 -5.7861856352435703e-01 +5.8480854563144327e-03
1.3500000000000005e+00 +8.5269496320078275e+00 +0.0000000000000000e+00 +1.3499999987471765e+00 -3.2381153651428303e-02 -5.7862750451730016e-01 +5.8475643829320060e-03
1.4000000000000006e+00 +8.5269458318178923e+00 +0.0000000000000000e+00 +1.3999999986027460e+00 -3.2381315300513247e-02 -5.7863680026181552e-01 +5.8470485484980617e-03
1.4500000000000006e+00 +8.5269418934183872e+00 +0.0000000000000000e+00 +1.4499999984476202e+00 -3.2381500492653155e-02 -5.7864645008855875e-01 +5.8465380841498365e-03
1.5000000000000007e+00 +8.5269378168070080e+00 +0.0000000000000000e+00 +1.4999999982814167e+00 -3.2381709443306830e-02 -5.7865645332820070e-01 +5.8460331210249883e-03
1.5500000000000007e+00 +8.5269336019813640e+00 +0.0000000000000000e+00 +1.5499999981037533e+00 -3.2381942367934513e-02 -5.7866680931142844e-01 +5.8455337902615940e-03
1.6000000000000008e+00 +8.5269292489389823e+00 +0.0000000000000000e+00 +1.5999999979142476e+00 -3.2382199481997977e-02 -5.7867751736894513e-01 +5.8450402229981886e-03
1.6500000000000008e+00 +8.5269247576773051e+00 +0.0000000000000000e+00 +1.6499999977125175e+00 -3.2382481000960570e-02 -5.7868857683146968e-01 +5.8445525503737746e-03
1.7000000000000008e+00 +8.5269201281936908e+00 +0.0000000000000000e+00 +1.6999999974981803e+00 -3.2382787140287216e-02 -5.7869998702973668e-01 +5.8440709035278270e-03
1.7500000000000009e+00 +8.5269153604854147e+00 +0.0000000000000000e+00 +1.7499999972708540e+00 -3.2383118115444427e-02 -5.7871174729449537e-01 +5.8435954136003155e-03
1.8000000000000009e+00 +8.5269104545496663e+00 +0.0000000000000000e+00 +1.7999999970301559e+00 -3.2383474141900410e-02 -5.7872385695651263e-01 +5.8431262117317325e-03
1.8500000000000010e+00 +8.5269054103835558e+00 +0.0000000000000000e+00 +1.8499999967757039e+00 -3.2383855435124995e-02 -5.7873631534656877e-01 +5.8426634290630912e-03
1.9000000000000010e+00 +8.5269002279841057e+00 +0.0000000000000000e+00 +1.8999999965071153e+00 -3.2384262210589751e-02 -5.7874912179546090e-01 +5.8422071967359438e-03
1.9500000000000011e+00 +8.5268949073482574e+00 +0.0000000000000000e+00 +1.9499999962240078e+00 -3.2384694683767985e-02 -5.7876227563400073e-01 +5.8417576458924076e-03
2.0000000000000009e+00 +8.5268894484728683e+00 +0.0000000000000000e+00 +1.9999999959259986e+00 -3.2385153070134731e-02 -5.7877577619301535e-01 +5.8413149076751740e-03
2.0500000000000007e+00 +8.5268838513547163e+00 +0.0000000000000000e+00 +2.0499999956127053e+00 -3.2385637502621287e-02 -5.7878962259811995e-01 +5.8408791032585573e-03
2.1000000000000005e+00 +8.5268781159904918e+00 +0.0000000000000000e+00 +2.0999999952837451e+00 -3.2386147783978067e-02 -5.7880381315403451e-01 +5.8404503139416024e-03
2.1500000000000004e+00 +8.5268722423768057e+00 +0.0000000000000000e+00 +2.1499999949387356e+00 -3.2386683634410961e-02 -5.7881834596026494e-01 +5.8400286110549034e-03
2.2000000000000002e+00 +8.5268662305101888e+00 +0.0000000000000000e+00 +2.1999999945772943e+00 -3.2387244774126925e-02 -5.7883321911632901e-01 +5.8396140659296028e-03
2.2500000000000000e+00 +8.5268600803870864e+00 +0.0000000000000000e+00 +2.2499999941990381e+00 -3.2387830923333888e-02 -5.7884843072175396e-01 +5.8392067498973651e-03
2.2999999999999998e+00 +8.5268537920038661e+00 +0.0000000000000000e+00 +2.2999999938035844e+00 -3.2388441802240805e-02 -5.7886397887608121e-01 +5.8388067342904221e-03
2.3499999999999996e+00 +8.5268473653568151e+00 +0.0000000000000000e+00 +2.3499999933905507e+00 -3.2389077131057618e-02 -5.7887986167886152e-01 +5.8384140904415580e-03
2.3999999999999995e+00 +8.5268408004421392e+00 +0.0000000000000000e+00 +2.3999999929595535e+00 -3.2389736629995211e-02 -5.7889607722965741e-01 +5.8380288896841322e-03
2.4499999999999993e+00 +8.5268340972559642e+00 +0.0000000000000000e+00 +2.4499999925102105e+00 -3.2390420019265419e-02 -5.7891262362804119e-01 +5.8376512033520844e-03
2.4999999999999991e+00 +8.5268272557943394e+00 +0.0000000000000000e+00 +2.4999999920421385e+00 -3.2391127019081020e-02 -5.7892949897359658e-01 +5.8372811027799457e-03
2.5499999999999989e+00 +8.5268202760532343e+00 +0.0000000000000000e+00 +2.5499999915549547e+00 -3.2391857349655703e-02 -5.7894670136591642e-01 +5.8369186593028484e-03
2.5999999999999988e+00 +8.5268131580285385e+00 +0.0000000000000000e+00 +2.5999999910482758e+00 -3.2392610731204030e-02 -5.7896422890460408e-01 +5.8365639442565301e-03
2.6499999999999986e+00 +8.5268059017160667e+00 +0.0000000000000000e+00 +2.6499999905217191e+00 -3.2393386883941437e-02 -5.7898207968927196e-01 +5.8362170289773538e-03
2.6999999999999984e+00 +8.5267985071115557e+00 +0.0000000000000000e+00 +2.6999999899749012e+00 -3.2394185528084291e-02 -5.7900025181954229e-01 +5.8358779848023167e-03
2.7499999999999982e+00 +8.5267909742106642e+00 +0.0000000000000000e+00 +2.7499999894074394e+00 -3.2395006383849699e-02 -5.7901874339504644e-01 +5.8355468830690481e-03
2.7999999999999980e+00 +8.5267833030089761e+00 +0.0000000000000000e+00 +2.7999999888189500e+00 -3.2395849171455687e-02 -5.7903755251542444e-01 +5.8352237951158330e-03
2.8499999999999979e+00 +8.5267754935019990e+00 +0.0000000000000000e+00 +2.8499999882090501e+00 -3.2396713611121029e-02 -5.7905667728032506e-01 +5.8349087922816116e-03
2.8999999999999977e+00 +8.5267675456851642e+00 +0.0000000000000000e+00 +2.8999999875773561e+00 -3.2397599423065297e-02 -5.7907611578940521e-01 +5.8346019459060011e-03
2.9499999999999975e+00 +8.5267594595538299e+00 +0.0000000000000000e+00 +2.9499999869234848e+00 -3.2398506327508875e-02 -5.7909586614233011e-01 +5.8343033273292912e-03
2.9999999999999973e+00 +8.5267512351032781e+00 +0.0000000000000000e+00 +2.9999999862470528e+00 -3.2399434044672874e-02 -5.7911592643877308e-01 +5.8340130078924652e-03
3.0499999999999972e+00 +8.5267428723287182e+00 +0.0000000000000000e+00 +3.0499999855476769e+00 -3.2400382294779158e-02 -5.7913629477841455e-01 +5.8337310589372058e-03
3.0999999999999970e+00 +8.5267343712252845e+00 +0.0000000000000000e+00 +3.0999999848249735e+00 -3.2401350798050323e-02 -5.7915696926094273e-01 +5.8334575518059067e-03
3.1499999999999968e+00 +8.5267257317880389e+00 +0.0000000000000000e+00 +3.1499999840785589e+00 -3.2402339274709639e-02 -5.7917794798605282e-01 +5.8331925578416757e-03
3.1999999999999966e+00 +8.5267169540119703e+00 +0.0000000000000000e+00 +3.1999999833080492e+00 -3.2403347444981065e-02 -5.7919922905344667e-01 +5.8329361483883515e-03
3.2499999999999964e+00 +8.5267080378919964e+00 +0.0000000000000000e+00 +3.2499999825130614e+00 -3.2404375029089300e-02 -5.7922081056283348e-01 +5.8326883947905188e-03
3.2999999999999963e+00 +8.5266989834229623e+00 +0.0000000000000000e+00 +3.2999999816932113e+00 -3.2405421747259626e-02 -5.7924269061392808e-01 +5.8324493683934988e-03
3.3499999999999961e+00 +8.5266897905996419e+00 +0.0000000000000000e+00 +3.3499999808481151e+00 -3.2406487319717993e-02 -5.7926486730645199e-01 +5.8322191405433838e-03
3.3999999999999959e+00 +8.5266804594167382e+00 +0.0000000000000000e+00 +3.3999999799773892e+00 -3.2407571466690974e-02 -5.7928733874013183e-01 +5.8319977825870310e-03
3.4499999999999957e+00 +8.5266709898688831e+00 +0.0000000000000000e+00 +3.4499999790806499e+00 -3.2408673908405732e-02 -5.7931010301470065e-01 +5.8317853658720695e-03
3.4999999999999956e+00 +8.5266613819506407e+00 +0.0000000000000000e+00 +3.4999999781575131e+00 -3.2409794365090006e-02 -5.7933315822989639e-01 +5.8315819617469232e-03
3.5499999999999954e+00 +8.5266516356565045e+00 +0.0000000000000000e+00 +3.5499999772075945e+00 -3.2410932556972125e-02 -5.7935650248546255e-01 +5.8313876415608161e-03
3.5999999999999952e+00 +8.5266417509808985e+00 +0.0000000000000000e+00 +3.5999999762305106e+00 -3.2412088204280987e-02 -5.7938013388114762e-01 +5.8312024766637759e-03
3.6499999999999950e+00 +8.5266317279181774e+00 +0.0000000000000000e+00 +3.6499999752258767e+00 -3.2413261027245989e-02 -5.7940405051670363e-01 +5.8310265384066504e-03
3.6999999999999948e+00 +8.5266215664626301e+00 +0.0000000000000000e+00 +3.6999999741933087e+00 -3.2414450746097050e-02 -5.7942825049188840e-01 +5.8308598981411195e-03
3.7499999999999947e+00 +8.5266112666084748e+00 +0.0000000000000000e+00 +3.7499999731324229e+00 -3.2415657081064614e-02 -5.7945273190646285e-01 +5.8307026272196912e-03
3.7999999999999945e+00 +8.5266008283498653e+00 +0.0000000000000000e+00 +3.7999999720428344e+00 -3.2416879752379606e-02 -5.7947749286019234e-01 +5.8305547969957315e-03
3.8499999999999943e+00 +8.5265902516808882e+00 +0.0000000000000000e+00 +3.8499999709241592e+00 -3.2418118480273379e-02 -5.7950253145284591e-01 +5.8304164788234598e-03
3.8999999999999941e+00 +8.5265795365955608e+00 +0.0000000000000000e+00 +3.8999999697760126e+00 -3.2419372984977768e-02 -5.7952784578419547e-01 +5.8302877440579602e-03
3.9499999999999940e+00 +8.5265686830878380e+00 +0.0000000000000000e+00 +3.9499999685980103e+00 -3.2420642986725062e-02 -5.7955343395401704e-01 +5.8301686640552042e-03
3.9999999999999938e+00 +8.5265576911516092e+00 +0.0000000000000000e+00 +3.9999999673897677e+00 -3.2421928205747914e-02 -5.7957929406208852e-01 +5.8300593101720376e-03
4.0499999999999936e+00 +8.5265465607806963e+00 +0.0000000000000000e+00 +4.0499999661509003e+00 -3.2423228375258947e-02 -5.7960542407899485e-01 +5.8299597326235911e-03
4.0999999999999934e+00 +8.5265352919688588e+00 +0.0000000000000000e+00 +4.0999999648810235e+00 -3.2424543280389129e-02 -5.7963182145854009e-01 +5.8298698970549751e-03
4.1499999999999932e+00 +8.5265238847097908e+00 +0.0000000000000000e+00 +4.1499999635797522e+00 -3.2425872719248412e-02 -5.7965848352533555e-01 +5.8297897479687175e-03
4.1999999999999931e+00 +8.5265123389971258e+00 +0.0000000000000000e+00 +4.1999999622467010e+00 -3.2427216489946016e-02 -5.7968540760399700e-01 +5.8297192298674043e-03
4.2499999999999929e+00 +8.5265006548244315e+00 +0.0000000000000000e+00 +4.2499999608814862e+00 -3.2428574390590388e-02 -5.7971259101914296e-01 +5.8296582872536433e-03
4.2999999999999927e+00 +8.5264888321852155e+00 +0.0000000000000000e+00 +4.2999999594837224e+00 -3.2429946219289144e-02 -5.7974003109539651e-01 +5.8296068646300526e-03
4.3499999999999925e+00 +8.5264768710729246e+00 +0.0000000000000000e+00 +4.3499999580530240e+00 -3.2431331774148975e-02 -5.7976772515738351e-01 +5.8295649064992548e-03
4.3999999999999924e+00 +8.5264647714809438e+00 +0.0000000000000000e+00 +4.3999999565890064e+00 -3.2432730853275721e-02 -5.7979567052973358e-01 +5.8295323573638574e-03
4.4499999999999922e+00 +8.5264525334025976e+00 +0.0000000000000000e+00 +4.4499999550912852e+00 -3.2434143254774159e-02 -5.7982386453707846e-01 +5.8295091617264171e-03
4.4999999999999920e+00 +8.5264401568311534e+00 +0.0000000000000000e+00 +4.4999999535594739e+00 -3.2435568776748108e-02 -5.7985230450405334e-01 +5.8294952640894574e-03
4.5499999999999918e+00 +8.5264276417598168e+00 +0.0000000000000000e+00 +4.5499999519931880e+00 -3.2437007217300251e-02 -5.7988098775529573e-01 +5.8294906089554205e-03
4.5999999999999917e+00 +8.5264149881817382e+00 +0.0000000000000000e+00 +4.5999999503920419e+00 -3.2438458374532186e-02 -5.7990991161544592e-01 +5.8294951408266807e-03
4.6499999999999915e+00 +8.5264021960900074e+00 +0.0000000000000000e+00 +4.6499999487556494e+00 -3.2439922046544313e-02 -5.7993907340914597e-01 +5.8295088042055014e-03
4.6999999999999913e+00 +8.5263892654776612e+00 +0.0000000000000000e+00 +4.6999999470836258e+00 -3.2441398031435829e-02 -5.7996847046103972e-01 +5.8295315435940333e-03
4.7499999999999911e+00 +8.5263761963376759e+00 +0.0000000000000000e+00 +4.7499999453755857e+00 -3.2442886127304629e-02 -5.7999810009577413e-01 +5.8295633034943038e-03
4.7999999999999909e+00 +8.5263629886629762e+00 +0.0000000000000000e+00 +4.7999999436311427e+00 -3.2444386132247302e-02 -5.8002795963799625e-01 +5.8296040284081833e-03
4.8499999999999908e+00 +8.5263496424464300e+00 +0.0000000000000000e+00 +4.8499999418499113e+00 -3.2445897844359063e-02 -5.8005804641235537e-01 +5.8296536628373880e-03
4.8999999999999906e+00 +8.5263361576808503e+00 +0.0000000000000000e+00 +4.8999999400315062e+00 -3.2447421061733712e-02 -5.8008835774350254e-01 +5.8297121512834440e-03
4.9499999999999904e+00 +8.5263225343589983e+00 +0.0000000000000000e+00 +4.9499999381755408e+00 -3.2448955582463572e-02 -5.8011889095608915e-01 +5.8297794382476962e-03
4.9999999999999902e+00 +8.5263087724735804e+00 +0.0000000000000000e+00 +4.9999999362816299e+00 -3.2450501204639423e-02 -5.8014964337476693e-01 +5.8298554682312664e-03
5.0499999999999901e+00 +8.5262948720172531e+00 +0.0000000000000000e+00 +5.0499999343493869e+00 -3.2452057726350521e-02 -5.8018061232418960e-01 +5.8299401857350528e-03
5.0999999999999899e+00 +8.5262808329826179e+00 +0.0000000000000000e+00 +5.0999999323784255e+00 -3.2453624945684496e-02 -5.8021179512901089e-01 +5.8300335352597168e-03
5.1499999999999897e+00 +8.5262666553622264e+00 +0.0000000000000000e+00 +5.1499999303683603e+00 -3.2455202660727281e-02 -5.8024318911388473e-01 +5.8301354613056484e-03
5.1999999999999895e+00 +8.5262523391485807e+00 +0.0000000000000000e+00 +5.1999999283188050e+00 -3.2456790669563119e-02 -5.8027479160346507e-01 +5.8302459083729710e-03
5.2499999999999893e+00 +8.5262378843341331e+00 +0.0000000000000000e+00 +5.2499999262293722e+00 -3.2458388770274488e-02 -5.8030659992240585e-01 +5.8303648209615160e-03
5.2999999999999892e+00 +8.5262232909112861e+00 +0.0000000000000000e+00 +5.2999999240996765e+00 -3.2459996760942043e-02 -5.8033861139536103e-01 +5.8304921435708059e-03
5.3499999999999890e+00 +8.5262085588723941e+00 +0.0000000000000000e+00 +5.3499999219293306e+00 -3.2461614439644598e-02 -5.8037082334698409e-01 +5.8306278207000423e-03
5.3999999999999888e+00 +8.5261936882097622e+00 +0.0000000000000000e+00 +5.3999999197179482e+00 -3.2463241604459014e-02 -5.8040323310192721e-01 +5.8307717968480756e-03
5.4499999999999886e+00 +8.5261786789156506e+00 +0.0000000000000000e+00 +5.4499999174651430e+00 -3.2464878053460225e-02 -5.8043583798484244e-01 +5.8309240165134169e-03
5.4999999999999885e+00 +8.5261635309822701e+00 +0.0000000000000000e+00 +5.4999999151705277e+00 -3.2466523584721158e-02 -5.8046863532038084e-01 +5.8310844241941965e-03
5.5499999999999883e+00 +8.5261482444017886e+00 +0.0000000000000000e+00 +5.5499999128337159e+00 -3.2468177996312637e-02 -5.8050162243319203e-01 +5.8312529643881608e-03
5.5999999999999881e+00 +8.5261328191663264e+00 +0.0000000000000000e+00 +5.5999999104543212e+00 -3.2469841086303450e-02 -5.8053479664792362e-01 +5.8314295815926473e-03
5.6499999999999879e+00 +8.5261172552679607e+00 +0.0000000000000000e+00 +5.6499999080319556e+00 -3.2471512652760159e-02 -5.8056815528922301e-01 +5.8316142203045773e-03
5.6999999999999877e+00 +8.5261015526987229e+00 +0.0000000000000000e+00 +5.6999999055662327e+00 -3.2473192493747180e-02 -5.8060169568173448e-01 +5.8318068250204384e-03
5.7499999999999876e+00 +8.5260857114506035e+00 +0.0000000000000000e+00 +5.7499999030567652e+00 -3.2474880407326628e-02 -5.8063541515010109e-01 +5.8320073402362655e-03
5.7999999999999874e+00 +8.5260697315155465e+00 +0.0000000000000000e+00 +5.7999999005031659e+00 -3.2476576191558318e-02 -5.8066931101896369e-01 +5.8322157104476217e-03
5.8499999999999872e+00 +8.5260536128854572e+00 +0.0000000000000000e+00 +5.8499998979050476e+00 -3.2478279644499730e-02 -5.8070338061296023e-01 +5.8324318801495859e-03
5.8999999999999870e+00 +8.5260373555521980e+00 +0.0000000000000000e+00 +5.8999998952620230e+00 -3.2479990564205932e-02 -5.8073762125672679e-01 +5.8326557938367437e-03
