# field on trajectory
# s[mm] rx[mm] ry[mm] rz[mm] bx[T] by[T] bz[T]
0.0000000000000000e+00 +8.2850000000000001e+00 +0.0000000000000000e+00 +0.0000000000000000e+00 -3.1274595478617023e-02 -5.7981802561831441e-01 +5.3922897475357535e-03
-5.0000000000000003e-02 +8.2849999307425932e+00 +0.0000000000000000e+00 -4.9999999999936054e-02 -3.1273933231331236e-02 -5.7981950281306616e-01 +5.3922804825891450e-03
-1.0000000000000001e-01 +8.2849997229701202e+00 +0.0000000000000000e+00 -9.9999999999488359e-02 -3.1273290913831728e-02 -5.7982138469089917e-01 +5.3922776991837005e-03
-1.5000000000000002e-01 +8.2849993766821335e+00 +0.0000000000000000e+00 -1.4999999999827321e-01 -3.1272668534098019e-02 -5.7982367033252091e-01 +5.3922813715063383e-03
-2.0000000000000001e-01 +8.2849988918780841e+00 +0.0000000000000000e+00 -1.9999999999590687e-01 -3.1272066100111386e-02 -5.7982635881865796e-01 +5.3922914737442587e-03
-2.5000000000000000e-01 +8.2849982685573327e+00 +0.0000000000000000e+00 -2.4999999999200559e-01 -3.1271483619854851e-02 -5.7982944923005386e-01 +5.3923079800848994e-03
-2.9999999999999999e-01 +8.2849975067191401e+00 +0.0000000000000000e+00 -2.9999999998618565e-01 -3.1270921101313187e-02 -5.7983294064747126e-01 +5.3923308647159662e-03
-3.4999999999999998e-01 +8.2849966063626717e+00 +0.0000000000000000e+00 -3.4999999997806325e-01 -3.1270378552472784e-02 -5.7983683215169035e-01 +5.3923601018253942e-03
-3.9999999999999997e-01 +8.2849955674869982e+00 +0.0000000000000000e+00 -3.9999999996725460e-01 -3.1269855981321683e-02 -5.7984112282351008e-01 +5.3923956656013617e-03
-4.4999999999999996e-01 +8.2849943900910947e+00 +0.0000000000000000e+00 -4.4999999995337597e-01 -3.1269353395849443e-02 -5.7984581174374661e-01 +5.3924375302322860e-03
-4.9999999999999994e-01 +8.2849930741738405e+00 +0.0000000000000000e+00 -4.9999999993604360e-01 -3.1268870804047180e-02 -5.7985089799323475e-01 +5.3924856699068009e-03
-5.4999999999999993e-01 +8.2849916197340203e+00 +0.0000000000000000e+00 -5.4999999991487369e-01 -3.1268408213907438e-02 -5.7985638065282652e-01 +5.3925400588137606e-03
-5.9999999999999998e-01 +8.2849900267703251e+00 +0.0000000000000000e+00 -5.9999999988948238e-01 -3.1267965633424238e-02 -5.7986225880339282e-01 +5.3926006711422390e-03
-6.5000000000000002e-01 +8.2849882952813516e+00 +0.0000000000000000e+00 -6.4999999985948587e-01 -3.1267543070592936e-02 -5.7986853152582085e-01 +5.3926674810815065e-03
-7.0000000000000007e-01 +8.2849864252655987e+00 +0.0000000000000000e+00 -6.9999999982450034e-01 -3.1267140533410218e-02 -5.7987519790101671e-01 +5.3927404628210454e-03
-7.5000000000000011e-01 +8.2849844167214766e+00 +0.0000000000000000e+00 -7.4999999978414189e-01 -3.1266758029874067e-02 -5.7988225700990315e-01 +5.3928195905505183e-03
-8.0000000000000016e-01 +8.2849822696472977e+00 +0.0000000000000000e+00 -7.9999999973802660e-01 -3.1266395567983676e-02 -5.7988970793342143e-01 +5.3929048384597899e-03
-8.5000000000000020e-01 +8.2849799840412821e+00 +0.0000000000000000e+00 -8.4999999968577067e-01 -3.1266053155739458e-02 -5.7989754975252994e-01 +5.3929961807388975e-03
-9.0000000000000024e-01 +8.2849775599015558e+00 +0.0000000000000000e+00 -8.9999999962699018e-01 -3.1265730801142928e-02 -5.7990578154820349e-01 +5.3930935915780537e-03
-9.5000000000000029e-01 +8.2849749972261542e+00 +0.0000000000000000e+00 -9.4999999956130110e-01 -3.1265428512196707e-02 -5.7991440240143610e-01 +5.3931970451676471e-03
-1.0000000000000002e+00 +8.2849722960130165e+00 +0.0000000000000000e+00 -9.9999999948831952e-01 -3.1265146296904474e-02 -5.7992341139323766e-01 +5.3933065156982251e-03
-1.0500000000000003e+00 +8.2849694562599900e+00 +0.0000000000000000e+00 -1.0499999994076616e+00 -3.1264884163270890e-02 -5.7993280760463561e-01 +5.3934219773604866e-03
-1.1000000000000003e+00 +8.2849664779648311e+00 +0.0000000000000000e+00 -1.0999999993189433e+00 -3.1264642119301564e-02 -5.7994259011667471e-01 +5.3935434043452871e-03
-1.1500000000000004e+00 +8.2849633611252038e+00 +0.0000000000000000e+00 -1.1499999992217804e+00 -3.1264420173002995e-02 -5.7995275801041679e-01 +5.3936707708436265e-03
-1.2000000000000004e+00 +8.2849601057386764e+00 +0.0000000000000000e+00 -1.1999999991157890e+00 -3.1264218332382583e-02 -5.7996331036694093e-01 +5.3938040510466429e-03
-1.2500000000000004e+00 +8.2849567118027299e+00 +0.0000000000000000e+00 -1.2499999990005850e+00 -3.1264036605448499e-02 -5.7997424626734306e-01 +5.3939432191455975e-03
-1.3000000000000005e+00 +8.2849531793147513e+00 +0.0000000000000000e+00 -1.2999999988757842e+00 -3.1263875000209669e-02 -5.7998556479273489e-01 +5.3940882493318867e-03
-1.3500000000000005e+00 +8.2849495082720370e+00 +0.0000000000000000e+00 -1.3499999987410027e+00 -3.1263733524675770e-02 -5.7999726502424731e-01 +5.3942391157970216e-03
-1.4000000000000006e+00 +8.2849456986717929e+00 +0.0000000000000000e+00 -1.3999999985958562e+00 -3.1263612186857088e-02 -5.8000934604302579e-01 +5.3943957927326276e-03
-1.4500000000000006e+00 +8.2849417505111322e+00 +0.0000000000000000e+00 -1.4499999984399605e+00 -3.1263510994764550e-02 -5.8002180693023342e-01 +5.3945582543304307e-03
-1.5000000000000007e+00 +8.2849376637870780e+00 +0.0000000000000000e+00 -1.4999999982729313e+00 -3.1263429956409697e-02 -5.8003464676705008e-01 +5.3947264747822680e-03
-1.5500000000000007e+00 +8.2849334384965623e+00 +0.0000000000000000e+00 -1.5499999980943846e+00 -3.1263369079804551e-02 -5.8004786463467184e-01 +5.3949004282800592e-03
-1.6000000000000008e+00 +8.2849290746364286e+00 +0.0000000000000000e+00 -1.5999999979039359e+00 -3.1263328372961613e-02 -5.8006145961431133e-01 +5.3950800890158182e-03
-1.6500000000000008e+00 +8.2849245722034279e+00 +0.0000000000000000e+00 -1.6499999977012008e+00 -3.1263307843893827e-02 -5.8007543078719825e-01 +5.3952654311816388e-03
-1.7000000000000008e+00 +8.2849199311942225e+00 +0.0000000000000000e+00 -1.6999999974857951e+00 -3.1263307500614498e-02 -5.8008977723457777e-01 +5.3954564289696921e-03
-1.7500000000000009e+00 +8.2849151516053876e+00 +0.0000000000000000e+00 -1.7499999972573343e+00 -3.1263327351137300e-02 -5.8010449803771191e-01 +5.3956530565722159e-03
-1.8000000000000009e+00 +8.2849102334334042e+00 +0.0000000000000000e+00 -1.7999999970154341e+00 -3.1263367403476156e-02 -5.8011959227787890e-01 +5.3958552881815071e-03
-1.8500000000000010e+00 +8.2849051766746680e+00 +0.0000000000000000e+00 -1.8499999967597101e+00 -3.1263427665645264e-02 -5.8013505903637275e-01 +5.3960630979899230e-03
-1.9000000000000010e+00 +8.2848999813254824e+00 +0.0000000000000000e+00 -1.8999999964897776e+00 -3.1263508145658980e-02 -5.8015089739450432e-01 +5.3962764601898708e-03
-1.9500000000000011e+00 +8.2848946473820657e+00 +0.0000000000000000e+00 -1.9499999962052521e+00 -3.1263608851531857e-02 -5.8016710643360037e-01 +5.3964953489738033e-03
-2.0000000000000009e+00 +8.2848891748405435e+00 +0.0000000000000000e+00 -1.9999999959057491e+00 -3.1263729791278477e-02 -5.8018368523500252e-01 +5.3967197385342081e-03
-2.0500000000000007e+00 +8.2848835636969582e+00 +0.0000000000000000e+00 -2.0499999955908836e+00 -3.1263870944043121e-02 -5.8020063265626864e-01 +5.3969496029222710e-03
-2.1000000000000005e+00 +8.2848778139472596e+00 +0.0000000000000000e+00 -2.0999999952602715e+00 -3.1264032173488540e-02 -5.8021794665976434e-01 +5.3971849156239388e-03
-2.1500000000000004e+00 +8.2848719255873107e+00 +0.0000000000000000e+00 -2.1499999949135278e+00 -3.1264213314407603e-02 -5.8023562498406789e-01 +5.3974256499840084e-03
-2.2000000000000002e+00 +8.2848658986128889e+00 +0.0000000000000000e+00 -2.1999999945502675e+00 -3.1264414201593822e-02 -5.8025366536777012e-01 +5.3976717793474717e-03
-2.2500000000000000e+00 +8.2848597330196849e+00 +0.0000000000000000e+00 -2.2499999941701061e+00 -3.1264634669841293e-02 -5.8027206554947452e-01 +5.3979232770595322e-03
-2.2999999999999998e+00 +8.2848534288033040e+00 +0.0000000000000000e+00 -2.2999999937726585e+00 -3.1264874553944701e-02 -5.8029082326779757e-01 +5.3981801164655896e-03
-2.3499999999999996e+00 +8.2848469859592644e+00 +0.0000000000000000e+00 -2.3499999933575402e+00 -3.1265133688699306e-02 -5.8030993626136751e-01 +5.3984422709112594e-03
-2.3999999999999995e+00 +8.2848404044830009e+00 +0.0000000000000000e+00 -2.3999999929243661e+00 -3.1265411908900975e-02 -5.8032940226882468e-01 +5.3987097137423706e-03
-2.4499999999999993e+00 +8.2848336843698611e+00 +0.0000000000000000e+00 -2.4499999924727507e+00 -3.1265709049346078e-02 -5.8034921902882175e-01 +5.3989824183049732e-03
-2.4999999999999991e+00 +8.2848268256151130e+00 +0.0000000000000000e+00 -2.4999999920023095e+00 -3.1266024944831633e-02 -5.8036938428002238e-01 +5.3992603579453378e-03
-2.5499999999999989e+00 +8.2848198282139389e+00 +0.0000000000000000e+00 -2.5499999915126574e+00 -3.1266359430155134e-02 -5.8038989576110223e-01 +5.3995435060099680e-03
-2.5999999999999988e+00 +8.2848126921614398e+00 +0.0000000000000000e+00 -2.5999999910034091e+00 -3.1266712340114633e-02 -5.8041075121074781e-01 +5.3998318358455897e-03
-2.6499999999999986e+00 +8.2848054174526311e+00 +0.0000000000000000e+00 -2.6499999904741793e+00 -3.1267083509508714e-02 -5.8043194836765666e-01 +5.4001253207991706e-03
-2.6999999999999984e+00 +8.2847980040824520e+00 +0.0000000000000000e+00 -2.6999999899245828e+00 -3.1267472773136518e-02 -5.8045348497053717e-01 +5.4004239342179154e-03
-2.7499999999999982e+00 +8.2847904520457547e+00 +0.0000000000000000e+00 -2.7499999893542344e+00 -3.1267879965797635e-02 -5.8047535875810785e-01 +5.4007276494492705e-03
-2.7999999999999980e+00 +8.2847827613373166e+00 +0.0000000000000000e+00 -2.7999999887627482e+00 -3.1268304922292219e-02 -5.8049756746909820e-01 +5.4010364398409342e-03
-2.8499999999999979e+00 +8.2847749319518300e+00 +0.0000000000000000e+00 -2.8499999881497393e+00 -3.1268747477420915e-02 -5.8052010884224736e-01 +5.4013502787408577e-03
-2.8999999999999977e+00 +8.2847669638839108e+00 +0.0000000000000000e+00 -2.8999999875148221e+00 -3.1269207465984813e-02 -5.8054298061630383e-01 +5.4016691394972354e-03
-2.9499999999999975e+00 +8.2847588571280966e+00 +0.0000000000000000e+00 -2.9499999868576112e+00 -3.1269684722785532e-02 -5.8056618053002684e-01 +5.4019929954585355e-03
-2.9999999999999973e+00 +8.2847506116788434e+00 +0.0000000000000000e+00 -2.9999999861777207e+00 -3.1270179082625145e-02 -5.8058970632218454e-01 +5.4023218199734857e-03
-3.0499999999999972e+00 +8.2847422275305309e+00 +0.0000000000000000e+00 -3.0499999854747650e+00 -3.1270690380306200e-02 -5.8061355573155404e-01 +5.4026555863910782e-03
-3.0999999999999970e+00 +8.2847337046774641e+00 +0.0000000000000000e+00 -3.0999999847483588e+00 -3.1271218450631667e-02 -5.8063772649692136e-01 +5.4029942680605793e-03
-3.1499999999999968e+00 +8.2847250431138661e+00 +0.0000000000000000e+00 -3.1499999839981161e+00 -3.1271763128404996e-02 -5.8066221635708171e-01 +5.4033378383315286e-03
-3.1999999999999966e+00 +8.2847162428338876e+00 +0.0000000000000000e+00 -3.1999999832236510e+00 -3.1272324248430065e-02 -5.8068702305083897e-01 +5.4036862705537534e-03
-3.2499999999999964e+00 +8.2847073038316026e+00 +0.0000000000000000e+00 -3.2499999824245775e+00 -3.1272901645511192e-02 -5.8071214431700457e-01 +5.4040395380773598e-03
-3.2999999999999963e+00 +8.2846982261010105e+00 +0.0000000000000000e+00 -3.2999999816005094e+00 -3.1273495154453108e-02 -5.8073757789439884e-01 +5.4043976142527390e-03
-3.3499999999999961e+00 +8.2846890096360344e+00 +0.0000000000000000e+00 -3.3499999807510612e+00 -3.1274104610060943e-02 -5.8076332152184906e-01 +5.4047604724305797e-03
-3.3999999999999959e+00 +8.2846796544305263e+00 +0.0000000000000000e+00 -3.3999999798758465e+00 -3.1274729847140234e-02 -5.8078937293819122e-01 +5.4051280859618665e-03
-3.4499999999999957e+00 +8.2846701604782620e+00 +0.0000000000000000e+00 -3.4499999789744793e+00 -3.1275370700496956e-02 -5.8081572988226804e-01 +5.4055004281978831e-03
-3.4999999999999956e+00 +8.2846605277729441e+00 +0.0000000000000000e+00 -3.4999999780465734e+00 -3.1276027004937423e-02 -5.8084239009292926e-01 +5.4058774724902161e-03
-3.5499999999999954e+00 +8.2846507563082046e+00 +0.0000000000000000e+00 -3.5499999770917423e+00 -3.1276698595268347e-02 -5.8086935130903228e-01 +5.4062591921907616e-03
-3.5999999999999952e+00 +8.2846408460776022e+00 +0.0000000000000000e+00 -3.5999999761095998e+00 -3.1277385306296791e-02 -5.8089661126944081e-01 +5.4066455606517315e-03
-3.6499999999999950e+00 +8.2846307970746249e+00 +0.0000000000000000e+00 -3.6499999750997589e+00 -3.1278086972830237e-02 -5.8092416771302569e-01 +5.4070365512256507e-03
-3.6999999999999948e+00 +8.2846206092926895e+00 +0.0000000000000000e+00 -3.6999999740618339e+00 -3.1278803429676455e-02 -5.8095201837866295e-01 +5.4074321372653686e-03
-3.7499999999999947e+00 +8.2846102827251435e+00 +0.0000000000000000e+00 -3.7499999729954379e+00 -3.1279534511643586e-02 -5.8098016100523564e-01 +5.4078322921240572e-03
-3.7999999999999945e+00 +8.2845998173652635e+00 +0.0000000000000000e+00 -3.7999999719001845e+00 -3.1280280053540138e-02 -5.8100859333163224e-01 +5.4082369891552129e-03
-3.8499999999999943e+00 +8.2845892132062584e+00 +0.0000000000000000e+00 -3.8499999707756865e+00 -3.1281039890174896e-02 -5.8103731309674767e-01 +5.4086462017126731e-03
-3.8999999999999941e+00 +8.2845784702412661e+00 +0.0000000000000000e+00 -3.8999999696215575e+00 -3.1281813856356977e-02 -5.8106631803948083e-01 +5.4090599031506080e-03
-3.9499999999999940e+00 +8.2845675884633589e+00 +0.0000000000000000e+00 -3.9499999684374103e+00 -3.1282601786895847e-02 -5.8109560589873699e-01 +5.4094780668235325e-03
-3.9999999999999938e+00 +8.2845565678655397e+00 +0.0000000000000000e+00 -3.9999999672228586e+00 -3.1283403516601228e-02 -5.8112517441342637e-01 +5.4099006660863003e-03
-4.0499999999999936e+00 +8.2845454084407439e+00 +0.0000000000000000e+00 -4.0499999659775145e+00 -3.1284218894204616e-02 -5.8115502121787155e-01 +5.4103276734746488e-03
-4.0999999999999934e+00 +8.2845341101818413e+00 +0.0000000000000000e+00 -4.0999999647009924e+00 -3.1285047824123551e-02 -5.8118514352802930e-01 +5.4107590582466378e-03
-4.1499999999999932e+00 +8.2845226730816375e+00 +0.0000000000000000e+00 -4.1499999633929034e+00 -3.1285890224697223e-02 -5.8121553845526741e-01 +5.4111947888408722e-03
-4.1999999999999931e+00 +8.2845110971328708e+00 +0.0000000000000000e+00 -4.1999999620528614e+00 -3.1286746014264871e-02 -5.8124620311095532e-01 +5.4116348336959424e-03
-4.2499999999999929e+00 +8.2844993823282156e+00 +0.0000000000000000e+00 -4.2499999606804790e+00 -3.1287615111165831e-02 -5.8127713460646424e-01 +5.4120791612504169e-03
-4.2999999999999927e+00 +8.2844875286602839e+00 +0.0000000000000000e+00 -4.2999999592753682e+00 -3.1288497433739480e-02 -5.8130833005316740e-01 +5.4125277399428295e-03
-4.3499999999999925e+00 +8.2844755361216222e+00 +0.0000000000000000e+00 -4.3499999578371424e+00 -3.1289392900325265e-02 -5.8133978656243890e-01 +5.4129805382116813e-03
-4.3999999999999924e+00 +8.2844634047047165e+00 +0.0000000000000000e+00 -4.3999999563654137e+00 -3.1290301429262667e-02 -5.8137150124565451e-01 +5.4134375244954272e-03
-4.4499999999999922e+00 +8.2844511344019907e+00 +0.0000000000000000e+00 -4.4499999548597939e+00 -3.1291222938891181e-02 -5.8140347121419012e-01 +5.4138986672324719e-03
-4.4999999999999920e+00 +8.2844387252058063e+00 +0.0000000000000000e+00 -4.4999999533198967e+00 -3.1292157347550288e-02 -5.8143569357942260e-01 +5.4143639348611635e-03
-4.5499999999999918e+00 +8.2844261771084664e+00 +0.0000000000000000e+00 -4.5499999517453329e+00 -3.1293104573579485e-02 -5.8146816545272850e-01 +5.4148332958197784e-03
-4.5999999999999917e+00 +8.2844134901022137e+00 +0.0000000000000000e+00 -4.5999999501357154e+00 -3.1294064535318238e-02 -5.8150088394548516e-01 +5.4153067185465278e-03
-4.6499999999999915e+00 +8.2844006641792323e+00 +0.0000000000000000e+00 -4.6499999484906560e+00 -3.1295037151105959e-02 -5.8153384616906867e-01 +5.4157841714795405e-03
-4.6999999999999913e+00 +8.2843876993316474e+00 +0.0000000000000000e+00 -4.6999999468097675e+00 -3.1296022339282033e-02 -5.8156704923485514e-01 +5.4162656230568569e-03
-4.7499999999999911e+00 +8.2843745955515278e+00 +0.0000000000000000e+00 -4.7499999450926609e+00 -3.1297020018185788e-02 -5.8160049025421934e-01 +5.4167510417164316e-03
-4.7999999999999909e+00 +8.2843613528308850e+00 +0.0000000000000000e+00 -4.7999999433389480e+00 -3.1298030106156428e-02 -5.8163416633853537e-01 +5.4172403958961061e-03
-4.8499999999999908e+00 +8.2843479711616741e+00 +0.0000000000000000e+00 -4.8499999415482415e+00 -3.1299052521533130e-02 -5.8166807459917502e-01 +5.4177336540336312e-03
-4.8999999999999906e+00 +8.2843344505357948e+00 +0.0000000000000000e+00 -4.8999999397201526e+00 -3.1300087182654902e-02 -5.8170221214750939e-01 +5.4182307845666239e-03
-4.9499999999999904e+00 +8.2843207909450918e+00 +0.0000000000000000e+00 -4.9499999378542920e+00 -3.1301134007860665e-02 -5.8173657609490692e-01 +5.4187317559325956e-03
-4.9999999999999902e+00 +8.2843069923813566e+00 +0.0000000000000000e+00 -4.9999999359502727e+00 -3.1302192915489184e-02 -5.8177116355273362e-01 +5.4192365365689169e-03
-5.0499999999999901e+00 +8.2842930548363256e+00 +0.0000000000000000e+00 -5.0499999340077046e+00 -3.1303263823879116e-02 -5.8180597163235326e-01 +5.4197450949128373e-03
-5.0999999999999899e+00 +8.2842789783016837e+00 +0.0000000000000000e+00 -5.0999999320262006e+00 -3.1304346651368921e-02 -5.8184099744512674e-01 +5.4202573994014446e-03
-5.1499999999999897e+00 +8.2842647627690642e+00 +0.0000000000000000e+00 -5.1499999300053707e+00 -3.1305441316296874e-02 -5.8187623810241218e-01 +5.4207734184716933e-03
-5.1999999999999895e+00 +8.2842504082300490e+00 +0.0000000000000000e+00 -5.1999999279448268e+00 -3.1306547737001068e-02 -5.8191169071556303e-01 +5.4212931205603722e-03
-5.2499999999999893e+00 +8.2842359146761684e+00 +0.0000000000000000e+00 -5.2499999258441798e+00 -3.1307665831819431e-02 -5.8194735239593010e-01 +5.4218164741041096e-03
-5.2999999999999892e+00 +8.2842212820989012e+00 +0.0000000000000000e+00 -5.2999999237030408e+00 -3.1308795519089605e-02 -5.8198322025485993e-01 +5.4223434475393628e-03
-5.3499999999999890e+00 +8.2842065104896818e+00 +0.0000000000000000e+00 -5.3499999215210199e+00 -3.1309936717149031e-02 -5.8201929140369513e-01 +5.4228740093024037e-03
-5.3999999999999888e+00 +8.2841915998398914e+00 +0.0000000000000000e+00 -5.3999999192977288e+00 -3.1311089344334922e-02 -5.8205556295377336e-01 +5.4234081278293376e-03
-5.4499999999999886e+00 +8.2841765501408666e+00 +0.0000000000000000e+00 -5.4499999170327786e+00 -3.1312253318984191e-02 -5.8209203201642723e-01 +5.4239457715560546e-03
-5.4999999999999885e+00 +8.2841613613838945e+00 +0.0000000000000000e+00 -5.4999999147257794e+00 -3.1313428559433490e-02 -5.8212869570298464e-01 +5.4244869089182602e-03
-5.5499999999999883e+00 +8.2841460335602157e+00 +0.0000000000000000e+00 -5.5499999123763413e+00 -3.1314614984019218e-02 -5.8216555112476864e-01 +5.4250315083514532e-03
-5.5999999999999881e+00 +8.2841305666610285e+00 +0.0000000000000000e+00 -5.5999999099840752e+00 -3.1315812511077408e-02 -5.8220259539309527e-01 +5.4255795382909108e-03
-5.6499999999999879e+00 +8.2841149606774813e+00 +0.0000000000000000e+00 -5.6499999075485920e+00 -3.1317021058943809e-02 -5.8223982561927612e-01 +5.4261309671716973e-03
-5.6999999999999877e+00 +8.2840992156006799e+00 +0.0000000000000000e+00 -5.6999999050695012e+00 -3.1318240545953807e-02 -5.8227723891461514e-01 +5.4266857634286524e-03
-5.7499999999999876e+00 +8.2840833314216873e+00 +0.0000000000000000e+00 -5.7499999025464135e+00 -3.1319470890442513e-02 -5.8231483239041093e-01 +5.4272438954963706e-03
-5.7999999999999874e+00 +8.2840673081315241e+00 +0.0000000000000000e+00 -5.7999998999789391e+00 -3.1320712010744607e-02 -5.8235260315795445e-01 +5.4278053318092111e-03
-5.8499999999999872e+00 +8.2840511457211665e+00 +0.0000000000000000e+00 -5.8499998973666880e+00 -3.1321963825194414e-02 -5.8239054832853010e-01 +5.4283700408012886e-03
