# field on trajectory
# s[mm] rx[mm] ry[mm] rz[mm] bx[T] by[T] bz[T]
0.0000000000000000e+00 +8.5269999999999904e+00 +0.0000000000000000e+00 +0.0000000000000000e+00 -2.8024761883187997e-02 -5.5216769564323631e-01 +5.7226485888936295e-03
5.0000000000000003e-02 +8.5269999309457507e+00 +0.0000000000000000e+00 +4.9999999999936401e-02 -2.8024323268634514e-02 -5.5216452280123696e-01 +5.7210829546942956e-03
1.0000000000000001e-01 +8.5269997237883199e+00 +0.0000000000000000e+00 +9.9999999999491399e-02 -2.8023909330371459e-02 -5.5216174823138853e-01 +5.7195137930500968e-03
1.4999999999999999e-01 +8.5269993785295792e+00 +0.0000000000000000e+00 +1.4999999999828301e-01 -2.8023519962742254e-02 -5.5215937125870251e-01 +5.7179411832124286e-03
2.0000000000000001e-01 +8.5269988951622508e+00 +0.0000000000000000e+00 +1.9999999999593099e-01 -2.8023155060094024e-02 -5.5215739120827412e-01 +5.7163652044331858e-03
2.5000000000000000e-01 +8.5269982736936107e+00 +0.0000000000000000e+00 +2.4999999999205300e-01 -2.8022814516769051e-02 -5.5215580740510883e-01 +5.7147859359629131e-03
2.9999999999999999e-01 +8.5269975141200103e+00 +0.0000000000000000e+00 +2.9999999998626797e-01 -2.8022498227114043e-02 -5.5215461917431130e-01 +5.7132034570528392e-03
3.4999999999999998e-01 +8.5269966164378292e+00 +0.0000000000000000e+00 +3.4999999997819298e-01 -2.8022206085476065e-02 -5.5215382584100114e-01 +5.7116178469540186e-03
4.0000000000000002e-01 +8.5269955806543294e+00 +0.0000000000000000e+00 +3.9999999996744900e-01 -2.8021937986198776e-02 -5.5215342673023771e-01 +5.7100291849164981e-03
4.5000000000000001e-01 +8.5269944067658798e+00 +0.0000000000000000e+00 +4.4999999995365297e-01 -2.8021693823630175e-02 -5.5215342116717603e-01 +5.7084375501910605e-03
5.0000000000000000e-01 +8.5269930947724806e+00 +0.0000000000000000e+00 +4.9999999993642402e-01 -2.8021473492117453e-02 -5.5215380847696172e-01 +5.7068430220280804e-03
5.5000000000000004e-01 +8.5269916446777607e+00 +0.0000000000000000e+00 +5.4999999991537996e-01 -2.8021276886006939e-02 -5.5215458798473194e-01 +5.7052456796775558e-03
5.9999999999999998e-01 +8.5269900564744603e+00 +0.0000000000000000e+00 +5.9999999989013997e-01 -2.8021103899649385e-02 -5.5215575901571989e-01 +5.7036456023902638e-03
6.5000000000000002e-01 +8.5269883301661995e+00 +0.0000000000000000e+00 +6.4999999986032297e-01 -2.8020954427392126e-02 -5.5215732089509684e-01 +5.7020428694160670e-03
6.9999999999999996e-01 +8.5269864657566394e+00 +0.0000000000000000e+00 +6.9999999982554695e-01 -2.8020828363582957e-02 -5.5215927294805089e-01 +5.7004375600047744e-03
7.5000000000000000e-01 +8.5269844632421208e+00 +0.0000000000000000e+00 +7.4999999978543097e-01 -2.8020725602572853e-02 -5.5216161449984036e-01 +5.6988297534067544e-03
8.0000000000000004e-01 +8.5269823226226400e+00 +0.0000000000000000e+00 +7.9999999973959202e-01 -2.8020646038712002e-02 -5.5216434487571453e-01 +5.6972195288720771e-03
8.4999999999999998e-01 +8.5269800438982202e+00 +0.0000000000000000e+00 +8.4999999968765005e-01 -2.8020589566351062e-02 -5.5216746340093859e-01 +5.6956069656508143e-03
9.0000000000000002e-01 +8.5269776270688507e+00 +0.0000000000000000e+00 +8.9999999962922395e-01 -2.8020556079841261e-02 -5.5217096940079580e-01 +5.6939921429930793e-03
9.4999999999999996e-01 +8.5269750721381605e+00 +0.0000000000000000e+00 +9.4999999956393100e-01 -2.8020545473533102e-02 -5.5217486220056000e-01 +5.6923751401487385e-03
1.0000000000000000e+00 +8.5269723790988792e+00 +0.0000000000000000e+00 +9.9999999949139096e-01 -2.8020557641781539e-02 -5.5217914112560063e-01 +5.6907560363685800e-03
1.0500000000000000e+00 +8.5269695479546499e+00 +0.0000000000000000e+00 +1.0499999994112199e+00 -2.8020592478938157e-02 -5.5218380550122470e-01 +5.6891349109026070e-03
1.1000000000000001e+00 +8.5269665787091107e+00 +0.0000000000000000e+00 +1.0999999993230400e+00 -2.8020649879355111e-02 -5.5218885465275713e-01 +5.6875118430009357e-03
1.1499999999999999e+00 +8.5269634713586093e+00 +0.0000000000000000e+00 +1.1499999992264700e+00 -2.8020729737387780e-02 -5.5219428790559166e-01 +5.6858869119143568e-03
1.2000000000000000e+00 +8.5269602259031707e+00 +0.0000000000000000e+00 +1.1999999991211201e+00 -2.8020831947390828e-02 -5.5220010458511259e-01 +5.6842601968935145e-03
1.2500000000000000e+00 +8.5269568423427700e+00 +0.0000000000000000e+00 +1.2499999990066200e+00 -2.8020956403719495e-02 -5.5220630401672155e-01 +5.6826317771892006e-03
1.3000000000000000e+00 +8.5269533206774195e+00 +0.0000000000000000e+00 +1.2999999988825901e+00 -2.8021103000729651e-02 -5.5221288552583603e-01 +5.6810017320523794e-03
1.3500000000000001e+00 +8.5269496609071194e+00 +0.0000000000000000e+00 +1.3499999987486300e+00 -2.8021271632777775e-02 -5.5221984843789107e-01 +5.6793701407342042e-03
1.3999999999999999e+00 +8.5269458630355093e+00 +0.0000000000000000e+00 +1.3999999986043801e+00 -2.8021462194219665e-02 -5.5222719207831195e-01 +5.6777370824857339e-03
1.4500000000000000e+00 +8.5269419270553009e+00 +0.0000000000000000e+00 +1.4499999984494401e+00 -2.8021674579415699e-02 -5.5223491577261952e-01 +5.6761026365591176e-03
1.5000000000000000e+00 +8.5269378529737896e+00 +0.0000000000000000e+00 +1.4999999982834400e+00 -2.8021908682721627e-02 -5.5224301884624583e-01 +5.6744668822055946e-03
1.5500000000000000e+00 +8.5269336407873197e+00 +0.0000000000000000e+00 +1.5499999981060000e+00 -2.8022164398497810e-02 -5.5225150062471839e-01 +5.6728298986775186e-03
1.6000000000000001e+00 +8.5269292904959002e+00 +0.0000000000000000e+00 +1.5999999979167401e+00 -2.8022441621103979e-02 -5.5226036043355609e-01 +5.6711917652272374e-03
1.6499999999999999e+00 +8.5269248020995292e+00 +0.0000000000000000e+00 +1.6499999977152600e+00 -2.8022740244900486e-02 -5.5226959759829297e-01 +5.6695525611073832e-03
1.7000000000000000e+00 +8.5269201755982102e+00 +0.0000000000000000e+00 +1.6999999975011999e+00 -2.8023060164248409e-02 -5.5227921144448078e-01 +5.6679123655708988e-03
1.7500000000000000e+00 +8.5269154109919292e+00 +0.0000000000000000e+00 +1.7499999972741700e+00 -2.8023401273509486e-02 -5.5228920129768710e-01 +5.6662712578710540e-03
1.8000000000000000e+00 +8.5269105082843506e+00 +0.0000000000000000e+00 +1.7999999970337901e+00 -2.8023763467044865e-02 -5.5229956648346945e-01 +5.6646293172611878e-03
1.8500000000000001e+00 +8.5269054674718099e+00 +0.0000000000000000e+00 +1.8499999967796801e+00 -2.8024146639219032e-02 -5.5231030632745581e-01 +5.6629866229955597e-03
1.8999999999999999e+00 +8.5269002885506797e+00 +0.0000000000000000e+00 +1.8999999965114500e+00 -2.8024550684397138e-02 -5.5232142015528896e-01 +5.6613432543288046e-03
1.9500000000000000e+00 +8.5268949715282396e+00 +0.0000000000000000e+00 +1.9499999962287300e+00 -2.8024975496941204e-02 -5.5233290729255025e-01 +5.6596992905151178e-03
2.0000000000000000e+00 +8.5268895164008391e+00 +0.0000000000000000e+00 +1.9999999959311201e+00 -2.8025420971217838e-02 -5.5234476706491542e-01 +5.6580548108099513e-03
2.0499999999999998e+00 +8.5268839230666291e+00 +0.0000000000000000e+00 +2.0499999956182600e+00 -2.8025887011034888e-02 -5.5235699858743126e-01 +5.6564098921360389e-03
2.1000000000000001e+00 +8.5268781914164702e+00 +0.0000000000000000e+00 +2.0999999952897199e+00 -2.8026373557823930e-02 -5.5236960012978398e-01 +5.6547646020539168e-03
2.1499999999999999e+00 +8.5268723214576294e+00 +0.0000000000000000e+00 +2.1499999949451398e+00 -2.8026880562380622e-02 -5.5238256974947497e-01 +5.6531190057743765e-03
2.2000000000000002e+00 +8.5268663131864706e+00 +0.0000000000000000e+00 +2.1999999945841302e+00 -2.8027407975505330e-02 -5.5239590550409756e-01 +5.6514731685090485e-03
2.2500000000000000e+00 +8.5268601666030008e+00 +0.0000000000000000e+00 +2.2499999942063100e+00 -2.8027955747998039e-02 -5.5240960545123263e-01 +5.6498271554692578e-03
2.2999999999999998e+00 +8.5268538817035697e+00 +0.0000000000000000e+00 +2.2999999938113000e+00 -2.8028523830660901e-02 -5.5242366764850104e-01 +5.6481810318665922e-03
2.3500000000000001e+00 +8.5268474584954692e+00 +0.0000000000000000e+00 +2.3499999933987001e+00 -2.8029112174293002e-02 -5.5243809015345646e-01 +5.6465348629117576e-03
2.3999999999999999e+00 +8.5268408969750507e+00 +0.0000000000000000e+00 +2.3999999929681501e+00 -2.8029720729698275e-02 -5.5245287102374496e-01 +5.6448887138162551e-03
2.4500000000000002e+00 +8.5268341971459396e+00 +0.0000000000000000e+00 +2.4499999925192602e+00 -2.8030349447678980e-02 -5.5246800831697318e-01 +5.6432426497909768e-03
2.5000000000000000e+00 +8.5268273590008903e+00 +0.0000000000000000e+00 +2.4999999920516398e+00 -2.8030998279042200e-02 -5.5248350009083824e-01 +5.6415967360475853e-03
2.5499999999999998e+00 +8.5268203825435194e+00 +0.0000000000000000e+00 +2.5499999915649201e+00 -2.8031667174592038e-02 -5.5249934440297077e-01 +5.6399510377968245e-03
2.6000000000000001e+00 +8.5268132677774702e+00 +0.0000000000000000e+00 +2.5999999910586999e+00 -2.8032356085133586e-02 -5.5251553931101383e-01 +5.6383056202493637e-03
2.6499999999999999e+00 +8.5268060146954703e+00 +0.0000000000000000e+00 +2.6499999905326099e+00 -2.8033064961476797e-02 -5.5253208287270117e-01 +5.6366605486166095e-03
2.7000000000000002e+00 +8.5267986233047797e+00 +0.0000000000000000e+00 +2.6999999899862699e+00 -2.8033793754427380e-02 -5.5254897314567297e-01 +5.6350158881087464e-03
2.7500000000000000e+00 +8.5267910936017905e+00 +0.0000000000000000e+00 +2.7499999894192899e+00 -2.8034542414795981e-02 -5.5256620818766000e-01 +5.6333717039366918e-03
2.7999999999999998e+00 +8.5267834255828294e+00 +0.0000000000000000e+00 +2.7999999888312899e+00 -2.8035310893394273e-02 -5.5258378605640424e-01 +5.6317280613112320e-03
2.8500000000000001e+00 +8.5267756192552007e+00 +0.0000000000000000e+00 +2.8499999882218900e+00 -2.8036099141030963e-02 -5.5260170480957937e-01 +5.6300850254421848e-03
2.8999999999999999e+00 +8.5267676746152592e+00 +0.0000000000000000e+00 +2.8999999875907001e+00 -2.8036907108519766e-02 -5.5261996250495060e-01 +5.6284426615400623e-03
2.9500000000000002e+00 +8.5267595916629908e+00 +0.0000000000000000e+00 +2.9499999869373399e+00 -2.8037734746674172e-02 -5.5263855720026622e-01 +5.6268010348149450e-03
3.0000000000000000e+00 +8.5267513703984203e+00 +0.0000000000000000e+00 +2.9999999862614302e+00 -2.8038582006308658e-02 -5.5265748695328532e-01 +5.6251602104767503e-03
3.0499999999999998e+00 +8.5267430108251592e+00 +0.0000000000000000e+00 +3.0499999855625899e+00 -2.8039448838237526e-02 -5.5267674982175152e-01 +5.6235202537349488e-03
3.1000000000000001e+00 +8.5267345129359509e+00 +0.0000000000000000e+00 +3.0999999848404300e+00 -2.8040335193280076e-02 -5.5269634386349753e-01 +5.6218812297996572e-03
3.1499999999999999e+00 +8.5267258767344192e+00 +0.0000000000000000e+00 +3.1499999840945798e+00 -2.8041241022252791e-02 -5.5271626713628708e-01 +5.6202432038799776e-03
3.2000000000000002e+00 +8.5267171022205694e+00 +0.0000000000000000e+00 +3.1999999833246400e+00 -2.8042166275974577e-02 -5.5273651769792054e-01 +5.6186062411850762e-03
3.2500000000000000e+00 +8.5267081893980503e+00 +0.0000000000000000e+00 +3.2499999825302401e+00 -2.8043110905264144e-02 -5.5275709360618108e-01 +5.6169704069236352e-03
3.2999999999999998e+00 +8.5266991382632096e+00 +0.0000000000000000e+00 +3.2999999817109900e+00 -2.8044074860944006e-02 -5.5277799291891394e-01 +5.6153357663046776e-03
3.3500000000000001e+00 +8.5266899488124199e+00 +0.0000000000000000e+00 +3.3499999808665200e+00 -2.8045058093837789e-02 -5.5279921369397500e-01 +5.6137023845369855e-03
3.3999999999999999e+00 +8.5266806210529502e+00 +0.0000000000000000e+00 +3.3999999799964300e+00 -2.8046060554766401e-02 -5.5282075398914876e-01 +5.6120703268282774e-03
3.4500000000000002e+00 +8.5266711549811607e+00 +0.0000000000000000e+00 +3.4499999791003502e+00 -2.8047082194555831e-02 -5.5284261186230843e-01 +5.6104396583868477e-03
3.5000000000000000e+00 +8.5266615505970496e+00 +0.0000000000000000e+00 +3.4999999781778901e+00 -2.8048122964031974e-02 -5.5286478537131001e-01 +5.6088104444204576e-03
3.5499999999999998e+00 +8.5266518079006293e+00 +0.0000000000000000e+00 +3.5499999772286701e+00 -2.8049182814021922e-02 -5.5288727257401726e-01 +5.6071827501365940e-03
3.6000000000000001e+00 +8.5266419268882601e+00 +0.0000000000000000e+00 +3.5999999762523198e+00 -2.8050261695355325e-02 -5.5291007152832983e-01 +5.6055566407427482e-03
3.6499999999999999e+00 +8.5266319075708505e+00 +0.0000000000000000e+00 +3.6499999752484298e+00 -2.8051359558857784e-02 -5.5293318029204919e-01 +5.6039321814450108e-03
3.6999999999999900e+00 +8.5266217499374797e+00 +0.0000000000000000e+00 +3.6999999742166398e+00 -2.8052476355364071e-02 -5.5295659692314358e-01 +5.6023094374508340e-03
3.7499999999999898e+00 +8.5266114539917908e+00 +0.0000000000000000e+00 +3.7499999731565601e+00 -2.8053612035704945e-02 -5.5298031947948378e-01 +5.6006884739662616e-03
3.7999999999999901e+00 +8.5266010197374307e+00 +0.0000000000000000e+00 +3.7999999720678099e+00 -2.8054766550712443e-02 -5.5300434601894788e-01 +5.5990693561970076e-03
3.8499999999999899e+00 +8.5265904471671092e+00 +0.0000000000000000e+00 +3.8499999709499999e+00 -2.8055939851223826e-02 -5.5302867459950111e-01 +5.5974521493492944e-03
3.8999999999999901e+00 +8.5265797362881095e+00 +0.0000000000000000e+00 +3.8999999698027499e+00 -2.8057131888072427e-02 -5.5305330327900992e-01 +5.5958369186279071e-03
3.9499999999999900e+00 +8.5265688870931609e+00 +0.0000000000000000e+00 +3.9499999686256899e+00 -2.8058342612098133e-02 -5.5307823011545421e-01 +5.5942237292383725e-03
3.9999999999999898e+00 +8.5265578995895304e+00 +0.0000000000000000e+00 +3.9999999674184199e+00 -2.8059571974136908e-02 -5.5310345316671472e-01 +5.5926126463847750e-03
4.0499999999999901e+00 +8.5265467737735907e+00 +0.0000000000000000e+00 +4.0499999661805601e+00 -2.8060819922142554e-02 -5.5312897034949116e-01 +5.5910037390378463e-03
4.0999999999999899e+00 +8.5265355096416897e+00 +0.0000000000000000e+00 +4.0999999649117402e+00 -2.8062086392520225e-02 -5.5315477901541876e-01 +5.5893970912330223e-03
4.1499999999999897e+00 +8.5265241072047502e+00 +0.0000000000000000e+00 +4.1499999636115703e+00 -2.8063371318783444e-02 -5.5318087637476065e-01 +5.5877927907711780e-03
4.1999999999999904e+00 +8.5265125664518600e+00 +0.0000000000000000e+00 +4.1999999622796604e+00 -2.8064674634454639e-02 -5.5320725963794237e-01 +5.5861909254552086e-03
4.2499999999999902e+00 +8.5265008873866499e+00 +0.0000000000000000e+00 +4.2499999609156403e+00 -2.8065996273052056e-02 -5.5323392601528498e-01 +5.5845915830873231e-03
4.2999999999999901e+00 +8.5264890700091200e+00 +0.0000000000000000e+00 +4.2999999595191198e+00 -2.8067336168096275e-02 -5.5326087271713764e-01 +5.5829948514704124e-03
4.3499999999999899e+00 +8.5264771143192792e+00 +0.0000000000000000e+00 +4.3499999580897200e+00 -2.8068694253108952e-02 -5.5328809695385084e-01 +5.5814008184077975e-03
4.3999999999999897e+00 +8.5264650203207601e+00 +0.0000000000000000e+00 +4.3999999566270596e+00 -2.8070070461611505e-02 -5.5331559593575042e-01 +5.5798095717029660e-03
4.4499999999999904e+00 +8.5264527880062797e+00 +0.0000000000000000e+00 +4.4499999551307496e+00 -2.8071464727130336e-02 -5.5334336687324115e-01 +5.5782211991606823e-03
4.4999999999999902e+00 +8.5264404173794901e+00 +0.0000000000000000e+00 +4.4999999536004101e+00 -2.8072876983188964e-02 -5.5337140697664999e-01 +5.5766357885853463e-03
4.5499999999999901e+00 +8.5264279084440204e+00 +0.0000000000000000e+00 +4.5499999520356598e+00 -2.8074307163311978e-02 -5.5339971345630357e-01 +5.5750534277818602e-03
4.5999999999999899e+00 +8.5264152611962292e+00 +0.0000000000000000e+00 +4.5999999504361098e+00 -2.8075755201027702e-02 -5.5342828352258122e-01 +5.5734742045561456e-03
4.6499999999999897e+00 +8.5264024756361305e+00 +0.0000000000000000e+00 +4.6499999488013897e+00 -2.8077221029864187e-02 -5.5345711438583589e-01 +5.5718982067143675e-03
4.6999999999999904e+00 +8.5263895517600794e+00 +0.0000000000000000e+00 +4.6999999471311096e+00 -2.8078704583351891e-02 -5.5348620325644615e-01 +5.5703255220634820e-03
4.7499999999999902e+00 +8.5263764895753393e+00 +0.0000000000000000e+00 +4.7499999454248902e+00 -2.8080205795018399e-02 -5.5351554734470920e-01 +5.5687562384101608e-03
4.7999999999999901e+00 +8.5263632890782901e+00 +0.0000000000000000e+00 +4.7999999436823400e+00 -2.8081724598396349e-02 -5.5354514386100173e-01 +5.5671904435624425e-03
4.8499999999999899e+00 +8.5263499502725608e+00 +0.0000000000000000e+00 +4.8499999419030901e+00 -2.8083260927016802e-02 -5.5357499001564514e-01 +5.5656282253283805e-03
4.8999999999999897e+00 +8.5263364731472393e+00 +0.0000000000000000e+00 +4.8999999400867402e+00 -2.8084814714417233e-02 -5.5360508301906519e-01 +5.5640696715176892e-03
4.9499999999999904e+00 +8.5263228577168793e+00 +0.0000000000000000e+00 +4.9499999382329296e+00 -2.8086385894126948e-02 -5.5363542008149924e-01 +5.5625148699387696e-03
4.9999999999999902e+00 +8.5263091039705596e+00 +0.0000000000000000e+00 +4.9999999363412497e+00 -2.8087974399685585e-02 -5.5366599841336861e-01 +5.5609639084025202e-03
5.0499999999999901e+00 +8.5262952115954196e+00 +0.0000000000000000e+00 +5.0499999344112600e+00 -2.8089580164743496e-02 -5.5369681522729775e-01 +5.5594168747428920e-03
5.0999999999999899e+00 +8.5262811802713294e+00 +0.0000000000000000e+00 +5.0999999324424596e+00 -2.8091203122954902e-02 -5.5372786773596294e-01 +5.5578738567949463e-03
5.1499999999999897e+00 +8.5262670100019005e+00 +0.0000000000000000e+00 +5.1499999304344799e+00 -2.8092843207857640e-02 -5.5375915314967283e-01 +5.5563349423702803e-03
5.1999999999999904e+00 +8.5262527007798798e+00 +0.0000000000000000e+00 +5.1999999283869203e+00 -2.8094500352994645e-02 -5.5379066867881199e-01 +5.5548002192819610e-03
5.2499999999999902e+00 +8.5262382526088896e+00 +0.0000000000000000e+00 +5.2499999262994104e+00 -2.8096174491905997e-02 -5.5382241153368172e-01 +5.5532697753429066e-03
5.2999999999999901e+00 +8.5262236654925800e+00 +0.0000000000000000e+00 +5.2999999241715603e+00 -2.8097865558132932e-02 -5.5385437892457889e-01 +5.5517436983667174e-03
5.3499999999999899e+00 +8.5262089394273097e+00 +0.0000000000000000e+00 +5.3499999220029704e+00 -2.8099573485220401e-02 -5.5388656806184766e-01 +5.5502220761682285e-03
5.3999999999999897e+00 +8.5261940744130698e+00 +0.0000000000000000e+00 +5.3999999197932702e+00 -2.8101298206713216e-02 -5.5391897615580310e-01 +5.5487049965627132e-03
5.4499999999999904e+00 +8.5261790704498708e+00 +0.0000000000000000e+00 +5.4499999175420601e+00 -2.8103039656157302e-02 -5.5395160041675362e-01 +5.5471925473661718e-03
5.4999999999999902e+00 +8.5261639275377092e+00 +0.0000000000000000e+00 +5.4999999152489698e+00 -2.8104797767099721e-02 -5.5398443805500219e-01 +5.5456848163953285e-03
5.5499999999999901e+00 +8.5261486456802196e+00 +0.0000000000000000e+00 +5.5499999129136004e+00 -2.8106572473087361e-02 -5.5401748628081970e-01 +5.5441818914673908e-03
5.5999999999999899e+00 +8.5261332248737691e+00 +0.0000000000000000e+00 +5.5999999105355700e+00 -2.8108363707670871e-02 -5.5405074230452378e-01 +5.5426838604008656e-03
5.6499999999999897e+00 +8.5261176651147306e+00 +0.0000000000000000e+00 +5.6499999081144896e+00 -2.8110171404402098e-02 -5.5408420333642672e-01 +5.5411908110150360e-03
5.6999999999999904e+00 +8.5261019664103497e+00 +0.0000000000000000e+00 +5.6999999056499897e+00 -2.8111995496830029e-02 -5.5411786658675311e-01 +5.5397028311291634e-03
5.7499999999999902e+00 +8.5260861287570204e+00 +0.0000000000000000e+00 +5.7499999031416600e+00 -2.8113835918508800e-02 -5.5415172926580103e-01 +5.5382200085641172e-03
5.7999999999999901e+00 +8.5260701521547198e+00 +0.0000000000000000e+00 +5.7999999005891203e+00 -2.8115692602992352e-02 -5.5418578858383438e-01 +5.5367424311413187e-03
5.8499999999999899e+00 +8.5260540366070892e+00 +0.0000000000000000e+00 +5.8499998979920003e+00 -2.8117565483834504e-02 -5.5422004175108330e-01 +5.5352701866827362e-03
5.8999999999999897e+00 +8.5260377821068705e+00 +0.0000000000000000e+00 +5.8999998953498896e+00 -2.8119454494594166e-02 -5.5425448597784932e-01 +5.5338033630119975e-03
