# multipoles
# s[mm] polynom_b[n=0][T/m^n] polynom_b[n=1][T/m^n] polynom_b[n=2][T/m^n] polynom_b[n=3][T/m^n] polynom_b[n=4][T/m^n] polynom_b[n=5][T/m^n] polynom_b[n=6][T/m^n] 
+0.0000000000000000e+00 -5.5237354762435509e-01 +7.2208196808884262e+00 +5.3321697174615084e+00 -5.6022702920669232e+01 +5.2354333325199423e+02 -4.6031492291524584e+04 -2.3754382018426456e+06 
-5.0000000000000003e-02 -5.5238054451124163e-01 +7.2211471440076300e+00 +5.3249330772526182e+00 -5.5625102142696207e+01 +5.0014883835356733e+02 -4.7871651803592875e+04 -2.1782438002966605e+06 
-1.0000000000000001e-01 -5.5238791751647887e-01 +7.2214951130916241e+00 +5.3171367063406967e+00 -5.5237753256916761e+01 +4.8076996540948534e+02 -4.9614843743635814e+04 -2.0090386254950624e+06 
-1.5000000000000002e-01 -5.5239566524824313e-01 +7.2218634771788581e+00 +5.3087867987264703e+00 -5.4859996291742469e+01 +4.6530093699138837e+02 -5.1266581018444616e+04 -1.8670981108125122e+06 
-2.0000000000000001e-01 -5.5240378631474263e-01 +7.2222521253196277e+00 +5.2998895520833331e+00 -5.4491171757103260e+01 +4.5363586779618055e+02 -5.2832372464547698e+04 -1.7516969326284281e+06 
-2.5000000000000000e-01 -5.5241227932416670e-01 +7.2226609465571565e+00 +5.2904511564962515e+00 -5.4130619823814357e+01 +4.4566908752034317e+02 -5.4317729813617938e+04 -1.6621112568775348e+06 
-2.9999999999999999e-01 -5.5242114288475352e-01 +7.2230898299375408e+00 +5.2804778087163760e+00 -5.3777680768571805e+01 +4.4129473763030444e+02 -5.5728163854412334e+04 -1.5976159487135035e+06 
-3.4999999999999998e-01 -5.5243037560474662e-01 +7.2235386645094497e+00 +5.2699757026959668e+00 -5.3431694953856109e+01 +4.4040704111365773e+02 -5.7069184641982509e+04 -1.5574864469920837e+06 
-3.9999999999999997e-01 -5.5243997609240814e-01 +7.2240073393197939e+00 +5.2589510331964142e+00 -5.3092002632176907e+01 +4.4290019688424735e+02 -5.8346303186661920e+04 -1.5409980220509092e+06 
-4.4999999999999996e-01 -5.5244994295601768e-01 +7.2244957434179291e+00 +5.2474099949534363e+00 -5.2757944140772508e+01 +4.4866840424461958e+02 -5.9565029754723888e+04 -1.5474259443722386e+06 
-4.9999999999999994e-01 -5.5246027480386684e-01 +7.2250037658527253e+00 +5.2353587815663039e+00 -5.2428859787428969e+01 +4.5760589606339727e+02 -6.0730874786357810e+04 -1.5760457223933497e+06 
-5.4999999999999993e-01 -5.5247097024427338e-01 +7.2255312956739584e+00 +5.2228035889780129e+00 -5.2104089867061859e+01 +4.6960683772610150e+02 -6.1849348937255716e+04 -1.6261323953809708e+06 
-5.9999999999999998e-01 -5.5248202788555845e-01 +7.2260782219326058e+00 +5.2097506103186202e+00 -5.1782974718810067e+01 +4.8456547507271108e+02 -6.2925962407482686e+04 -1.6969615622865129e+06 
-6.5000000000000002e-01 -5.5249344633607156e-01 +7.2266444336792599e+00 +5.1962060410111084e+00 -5.1464854640407971e+01 +5.0237598996687933e+02 -6.3966225740595721e+04 -1.7878083817690231e+06 
-7.0000000000000007e-01 -5.5250522420416825e-01 +7.2272298199671088e+00 +5.1821760750674430e+00 -5.1149070011426659e+01 +5.2293260084469773e+02 -6.4975648817588350e+04 -1.8979482560728481e+06 
-7.5000000000000011e-01 -5.5251736009823382e-01 +7.2278342698465012e+00 +5.1676669084847244e+00 -5.0834961072010707e+01 +5.4612947480063053e+02 -6.5959742647836116e+04 -2.0266562464694171e+06 
-8.0000000000000016e-01 -5.5252985262663534e-01 +7.2284576723734428e+00 +5.1526847314667839e+00 -5.0521868272379713e+01 +5.7186093534153247e+02 -6.6924016508829052e+04 -2.1732084745058119e+06 
-8.5000000000000020e-01 -5.5254270039781062e-01 +7.2290999165983543e+00 +5.1372357438940179e+00 -5.0209131816259742e+01 +6.0002104368476978e+02 -6.7873981685191844e+04 -2.3368792821546351e+06 
-9.0000000000000024e-01 -5.5255590202016203e-01 +7.2297608915787279e+00 +5.1213261368261591e+00 -4.9896092162999992e+01 +6.3050409907538381e+02 -6.8815147396162021e+04 -2.5169446231532381e+06 
-9.5000000000000029e-01 -5.5256945610212971e-01 +7.2304404863675886e+00 +5.1049621049457112e+00 -4.9582089578912175e+01 +6.6320430457045359e+02 -6.9753024396444132e+04 -2.7126798031878890e+06 
-1.0000000000000002e+00 -5.5258336125216967e-01 +7.2311385900198912e+00 +5.0881498436210144e+00 -4.9266464386873793e+01 +6.9801584033959739e+02 -7.0693122977816893e+04 -2.9233599590152414e+06 
-1.0500000000000003e+00 -5.5259761607874802e-01 +7.2318550915930544e+00 +5.0708955467661667e+00 -4.8948556984542044e+01 +7.3483293126541810e+02 -7.1640952832736890e+04 -3.1482605497886119e+06 
-1.1000000000000003e+00 -5.5261221919034520e-01 +7.2325898801427320e+00 +5.0532054081754936e+00 -4.8627707672620026e+01 +7.7354980298444616e+02 -7.2602024454716622e+04 -3.3866570276743532e+06 
-1.1500000000000004e+00 -5.5262716919545252e-01 +7.2333428447274004e+00 +5.0350856217376387e+00 -4.8303256857764673e+01 +8.1406067511964545e+02 -7.3581847424147520e+04 -3.6378247945086309e+06 
-1.2000000000000004e+00 -5.5264246470258960e-01 +7.2341138744023894e+00 +5.0165423829950075e+00 -4.7974544784110854e+01 +8.5625972602022648e+02 -7.4585932696643402e+04 -3.9010389814971322e+06 
-1.2500000000000004e+00 -5.5265810432027185e-01 +7.2349028582269721e+00 +4.9975818841845525e+00 -4.7640911845224402e+01 +9.0004122473154814e+02 -7.5619789977038468e+04 -4.1755753409610158e+06 
-1.3000000000000005e+00 -5.5267408665704676e-01 +7.2357096852604856e+00 +4.9782103213406952e+00 -4.7301698412453078e+01 +9.4529933098811989e+02 -7.6688929153684352e+04 -4.4607088566551153e+06 
-1.3500000000000005e+00 -5.5269041032145738e-01 +7.2365342445604837e+00 +4.9584338863132364e+00 -4.6956244767224703e+01 +9.9192832513861833e+02 -7.7798860842803711e+04 -4.7557153582849111e+06 
-1.4000000000000006e+00 -5.5270707392207719e-01 +7.2373764251875272e+00 +4.9382587747332156e+00 -4.6603891286000881e+01 +1.0398223773952416e+03 -7.8955094917490525e+04 -5.0598698992502969e+06 
-1.4500000000000006e+00 -5.5272407606748097e-01 +7.2382361162005591e+00 +4.9176911793568054e+00 -4.6243978269388450e+01 +1.0888757404751680e+03 -8.0163141831521920e+04 -5.3724481068545207e+06 
-1.5000000000000007e+00 -5.5274141536626653e-01 +7.2391132066611803e+00 +4.8967372943523966e+00 -4.5875846092847929e+01 +1.1389826303351128e+03 -8.1428511469983743e+04 -5.6927253645386789e+06 
-1.5500000000000007e+00 -5.5275909042702864e-01 +7.2400075856289465e+00 +4.8754033121200004e+00 -4.5498835041837737e+01 +1.1900373015830783e+03 -8.2756714411891677e+04 -6.0199772837654306e+06 
-1.6000000000000008e+00 -5.5277709985839818e-01 +7.2409191421675292e+00 +4.8536954277154276e+00 -4.5112285547313157e+01 +1.2419339448469611e+03 -8.4153260062421890e+04 -6.3534790671305768e+06 
-1.6500000000000008e+00 -5.5279544226901278e-01 +7.2418477653355096e+00 +4.8316198359208462e+00 -4.4715537809943164e+01 +1.2945667537355566e+03 -8.5623659719820804e+04 -6.6925059226861484e+06 
-1.7000000000000008e+00 -5.5281411626749466e-01 +7.2427933441981107e+00 +4.8091827258837867e+00 -4.4307932272931133e+01 +1.3478300754209949e+03 -8.7173422742214665e+04 -7.0363340994508034e+06 
-1.7500000000000009e+00 -5.5283312046251765e-01 +7.2437557678160553e+00 +4.7863902938432865e+00 -4.3888809198469922e+01 +1.4016180640329753e+03 -8.8808059885091061e+04 -7.3842385340856165e+06 
-1.8000000000000009e+00 -5.5285245346275047e-01 +7.2447349252504809e+00 +4.7632487326074502e+00 -4.3457508822717358e+01 +1.4558249686972695e+03 -9.0533082213246671e+04 -7.7354948131527929e+06 
-1.8500000000000010e+00 -5.5287211387686974e-01 +7.2457307055684854e+00 +4.7397642346659712e+00 -4.3013371628136497e+01 +1.5103450385465997e+03 -9.2353998706526865e+04 -8.0893784871514002e+06 
-1.9000000000000010e+00 -5.5289210031357494e-01 +7.2467429978305420e+00 +4.7159429935714785e+00 -4.2555737791259745e+01 +1.5650725038098294e+03 -9.4276320905452390e+04 -8.4451650176232234e+06 
-1.9500000000000011e+00 -5.5291241138156655e-01 +7.2477716911015477e+00 +4.6917912013086278e+00 -4.2083947657283858e+01 +1.6199016282139251e+03 -9.6305558959667556e+04 -8.8021300537462458e+06 
-2.0000000000000009e+00 -5.5293304568956625e-01 +7.2488166744456128e+00 +4.6673150513063462e+00 -4.1597341521905257e+01 +1.6747266404144468e+03 -9.8447223421809438e+04 -9.1595490222137477e+06 
-2.0500000000000007e+00 -5.5295400167692155e-01 +7.2498778315799317e+00 +4.6425208449591562e+00 -4.1095578016870768e+01 +1.7294500433144631e+03 -1.0070430581466889e+05 -9.5167535812280066e+06 
-2.1000000000000005e+00 -5.5297527710582173e-01 +7.2509550204792665e+00 +4.6174155476610785e+00 -4.0579605951844528e+01 +1.7840138194303674e+03 -1.0306968264901248e+05 -9.8733524961521588e+06 
-2.1500000000000004e+00 -5.5299686956926963e-01 +7.2520480916088790e+00 +4.5920063565950731e+00 -4.0050702194518827e+01 +1.8383714267146879e+03 -1.0553368638823666e+05 -1.0229036770244593e+07 
-2.2000000000000002e+00 -5.5301877666026400e-01 +7.2531568954260042e+00 +4.5663004662221969e+00 -3.9510143285283291e+01 +1.8924763979606171e+03 -1.0808665216420262e+05 -1.0583497916832134e+07 
-2.2500000000000000e+00 -5.5304099597183176e-01 +7.2542812823966134e+00 +4.5403050743683311e+00 -3.8959206101962820e+01 +1.9462821763655422e+03 -1.1071891237089096e+05 -1.0936426849000320e+07 
-2.2999999999999998e+00 -5.5306352509699008e-01 +7.2554211029804785e+00 +4.5140273752283919e+00 -3.8399167267754855e+01 +1.9997423050836844e+03 -1.1342080145318968e+05 -1.1287515164170427e+07 
-2.3499999999999996e+00 -5.5308636162877389e-01 +7.2565762076453124e+00 +4.4874745650165790e+00 -3.7831303715027026e+01 +2.0528102690181454e+03 -1.1618265135702142e+05 -1.1636454053619033e+07 
-2.3999999999999995e+00 -5.5310950316023677e-01 +7.2577464468495760e+00 +4.4606538410988605e+00 -3.7256891988259710e+01 +2.1054395287696289e+03 -1.1899479720187506e+05 -1.1982934570510095e+07 
-2.4499999999999993e+00 -5.5313294728443696e-01 +7.2589316710588774e+00 +4.4335724006148522e+00 -3.6677208916784387e+01 +2.1575835448188900e+03 -1.2184757177521684e+05 -1.2326647745340411e+07 
-2.4999999999999991e+00 -5.5315669159443781e-01 +7.2601317307350861e+00 +4.4062374396795496e+00 -3.6093531179315782e+01 +2.2091958114777881e+03 -1.2473130905112739e+05 -1.2667284861108139e+07 
-2.5499999999999989e+00 -5.5318073368330845e-01 +7.2613464763419975e+00 +4.3786561542964479e+00 -3.5507135500305623e+01 +2.2602298255548017e+03 -1.2763634274799691e+05 -1.3004537220715752e+07 
-2.5999999999999988e+00 -5.5320507114413375e-01 +7.2625757583433970e+00 +4.3508357416392363e+00 -3.4919298623120270e+01 +2.3106390517532354e+03 -1.3055300631249502e+05 -1.3338095904295214e+07 
-2.6499999999999986e+00 -5.5322970157000362e-01 +7.2638194272030345e+00 +4.3227833983817447e+00 -3.4331297279052606e+01 +2.3603769715350631e+03 -1.3347163331036063e+05 -1.3667652124055844e+07 
-2.6999999999999984e+00 -5.5325462255402535e-01 +7.2650773333819494e+00 +4.2945063234412331e+00 -3.3744408069251925e+01 +2.4093970028033132e+03 -1.3638255844036856e+05 -1.3992896651762709e+07 
-2.7499999999999982e+00 -5.5327983168930639e-01 +7.2663493273458712e+00 +4.2660117134342102e+00 -3.3159907795719484e+01 +2.4576526341219424e+03 -1.3927611468959102e+05 -1.4313520770253386e+07 
-2.7999999999999980e+00 -5.5330532656895215e-01 +7.2676352595584390e+00 +4.2373067649009561e+00 -3.2579073157572864e+01 +2.5050973437599600e+03 -1.4214263594955756e+05 -1.4629215647762662e+07 
-2.8499999999999979e+00 -5.5333110478609948e-01 +7.2689349804811823e+00 +4.2083986769423207e+00 -3.2003180777022393e+01 +2.5516845606659363e+03 -1.4497245668294322e+05 -1.4939672197788136e+07 
-2.8999999999999977e+00 -5.5335716393388534e-01 +7.2702483405807738e+00 +4.1792946491308554e+00 -3.1433507475356805e+01 +2.5973676836398313e+03 -1.4775590975907544e+05 -1.5244581064707976e+07 
-2.9499999999999975e+00 -5.5338350160543437e-01 +7.2715751903177059e+00 +4.1500018767750468e+00 -3.0871329822310368e+01 +2.6421002419231045e+03 -1.5048333009119108e+05 -1.5543633837546760e+07 
-2.9999999999999973e+00 -5.5341011539389862e-01 +7.2729153801575235e+00 +4.1205275595626061e+00 -3.0317924579670613e+01 +2.6858356369238013e+03 -1.5314505107566729e+05 -1.5836521203196138e+07 
-3.0499999999999972e+00 -5.5343700289244047e-01 +7.2742687605607355e+00 +4.0908788973309314e+00 -2.9774568321161826e+01 +2.7285272768677364e+03 -1.5573140757198134e+05 -1.6122933940607646e+07 
-3.0999999999999970e+00 -5.5346416169421453e-01 +7.2756351819949199e+00 +4.0610630883696581e+00 -2.9242537898352140e+01 +2.7701286037579093e+03 -1.5823273219152799e+05 -1.6402563029043835e+07 
-3.1499999999999968e+00 -5.5349158939239240e-01 +7.2770144949177062e+00 +4.0310873323155700e+00 -2.8723109743800851e+01 +2.8105930337229256e+03 -1.6063936105458630e+05 -1.6675099316567084e+07 
-3.1999999999999966e+00 -5.5351928358014413e-01 +7.2784065497978663e+00 +4.0009588280080770e+00 -2.8217560775571243e+01 +2.8498739998634610e+03 -1.6294162615576072e+05 -1.6940233748147838e+07 
-3.2499999999999964e+00 -5.5354724185065407e-01 +7.2798111970945261e+00 +3.9706847760729578e+00 -2.7727167481836396e+01 +2.8879248888917373e+03 -1.6512986318425610e+05 -1.7197656967810374e+07 
-3.2999999999999963e+00 -5.5357546179710326e-01 +7.2812282872719090e+00 +3.9402723754265199e+00 -2.7253206587844161e+01 +2.9246991384144408e+03 -1.6719440576203671e+05 -1.7447059983356655e+07 
-3.3499999999999961e+00 -5.5360394101269039e-01 +7.2826576707913624e+00 +3.9097288276241891e+00 -2.6796954688703511e+01 +2.9601501130399406e+03 -1.6912558864575264e+05 -1.7688133305831350e+07 
-3.3999999999999959e+00 -5.5363267709062003e-01 +7.2840991981165395e+00 +3.8790613342978317e+00 -2.6359688483481936e+01 +2.9942311791244970e+03 -1.7091374570623771e+05 -1.7920567474683970e+07 
-3.4499999999999957e+00 -5.5366166762408231e-01 +7.2855527197095302e+00 +3.8482770940389019e+00 -2.5942684600655380e+01 +3.0268957863150040e+03 -1.7254921144100145e+05 -1.8144053601151582e+07 
-3.4999999999999956e+00 -5.5369091020630101e-01 +7.2870180860322691e+00 +3.8173833109207811e+00 -2.5547219682668587e+01 +3.0580972354533374e+03 -1.7402232016063124e+05 -1.8358281790552221e+07 
-3.5499999999999954e+00 -5.5372040243047982e-01 +7.2884951475456923e+00 +3.7863871844720540e+00 -2.5174570310596888e+01 +3.0877889559751875e+03 -1.7532340678221470e+05 -1.8562943042409051e+07 
-3.5999999999999952e+00 -5.5375014188983740e-01 +7.2899837547120319e+00 +3.7552959164945343e+00 -2.4826013136105892e+01 +3.1159243156900029e+03 -1.7644280559532982e+05 -1.8757727943476979e+07 
-3.6499999999999950e+00 -5.5378012617761252e-01 +7.2914837579918812e+00 +3.7241167119176066e+00 -2.4502824763255738e+01 +3.1424565996147830e+03 -1.7737085122469766e+05 -1.8942326529002242e+07 
-3.6999999999999948e+00 -5.5381035288702052e-01 +7.2929950078472654e+00 +3.6928567714200198e+00 -2.4206281828735801e+01 +3.1673392074928183e+03 -1.7809787815632956e+05 -1.9116429614974391e+07 
-3.7499999999999947e+00 -5.5384081961129994e-01 +7.2945173547388595e+00 +3.6615232984856889e+00 -2.3937660949766780e+01 +3.1905254707838594e+03 -1.7861422091948389e+05 -1.9279727585842367e+07 
-3.7999999999999945e+00 -5.5387152394368155e-01 +7.2960506491254877e+00 +3.6301234957645341e+00 -2.3698238647891031e+01 +3.2119687396179138e+03 -1.7891021494505031e+05 -1.9431910942926098e+07 
-3.8499999999999943e+00 -5.5390246347742189e-01 +7.2975947414672753e+00 +3.5986645697700310e+00 -2.3489291533245115e+01 +3.2316222634973269e+03 -1.7897619481477528e+05 -1.9572669524508655e+07 
-3.8999999999999941e+00 -5.5393363580574961e-01 +7.2991494822257934e+00 +3.5671537214756119e+00 -2.3312096259657565e+01 +3.2494394478803283e+03 -1.7880249486047600e+05 -1.9701694251397964e+07 
-3.9499999999999940e+00 -5.5396503852191992e-01 +7.3007147218580677e+00 +3.5355981570965858e+00 -2.3167929316195874e+01 +3.2653735509675889e+03 -1.7837945071549425e+05 -1.9818675030418206e+07 
-3.9999999999999938e+00 -5.5399666921919466e-01 +7.3022903108250290e+00 +3.5040050830253193e+00 -2.3058067346500660e+01 +3.2793778371609660e+03 -1.7769739675872173e+05 -1.9923301854119409e+07 
-4.0499999999999936e+00 -5.5402852539694603e-01 +7.3038760850422113e+00 +3.4723812246138488e+00 -2.2983258335812742e+01 +3.2914175137442703e+03 -1.7675064402088476e+05 -2.0015352633815229e+07 
-4.0999999999999934e+00 -5.5406060417789549e-01 +7.3054718175845750e+00 +3.4407319636203462e+00 -2.2942142876301677e+01 +3.3014840107846471e+03 -1.7554929531452985e+05 -2.0094792206905849e+07 
-4.1499999999999932e+00 -5.5409290259027832e-01 +7.3070772645921451e+00 +3.4090624990455889e+00 -2.2932834002175582e+01 +3.3095701266350238e+03 -1.7410739455057861e+05 -2.0161592451709617e+07 
-4.1999999999999931e+00 -5.5412541766232937e-01 +7.3086921822068858e+00 +3.3773780294728493e+00 -2.2953444840621781e+01 +3.3156686774473319e+03 -1.7243898489928644e+05 -2.0215725388291683e+07 
-4.2499999999999929e+00 -5.5415814642227212e-01 +7.3103163265656859e+00 +3.3456837523160412e+00 -2.3002088307852432e+01 +3.3197725030157280e+03 -1.7055811131617142e+05 -2.0257163161570650e+07 
-4.2999999999999927e+00 -5.5419108589834110e-01 +7.3119494538112919e+00 +3.3139848667285978e+00 -2.3076877587567612e+01 +3.3218743968826934e+03 -1.6847881648620282e+05 -2.0285877603176303e+07 
-4.3499999999999925e+00 -5.5422423311874192e-01 +7.3135913200797598e+00 +3.2822865677511897e+00 -2.3175925578846556e+01 +3.3219672587429495e+03 -1.6621514552157454e+05 -2.0301841242051531e+07 
-4.3999999999999924e+00 -5.5425758511170675e-01 +7.3152416815124983e+00 +3.2505940551008212e+00 -2.3297345425032816e+01 +3.3200438631264924e+03 -1.6378114145778902e+05 -2.0305025763152756e+07 
-4.4499999999999922e+00 -5.5429113890544413e-01 +7.3169002942451078e+00 +3.2189125250414858e+00 -2.3439250042255782e+01 +3.3160970738709379e+03 -1.6119084921642841e+05 -2.0295403437467031e+07 
-4.4999999999999920e+00 -5.5432489152816189e-01 +7.3185669144169063e+00 +3.1872471740635619e+00 -2.3599752501237028e+01 +3.3101197465195214e+03 -1.5845831247206655e+05 -2.0272946466705650e+07 
-4.5499999999999918e+00 -5.5435884000806346e-01 +7.3202412981662253e+00 +3.1556031988607058e+00 -2.3776965849442007e+01 +3.3021047255863982e+03 -1.5559757507989331e+05 -2.0237626954188246e+07 
-4.5999999999999917e+00 -5.5439298137334125e-01 +7.3219232016295797e+00 +3.1239857942379139e+00 -2.3969003079697178e+01 +3.2920449118038550e+03 -1.5262268130342138e+05 -2.0189417402400922e+07 
-4.6499999999999915e+00 -5.5442731265218148e-01 +7.3236123809412321e+00 +3.0924001553320486e+00 -2.4173977089065566e+01 +3.2799331846392201e+03 -1.4954767627303326e+05 -2.0128290116952304e+07 
-4.6999999999999913e+00 -5.5446183087278078e-01 +7.3253085922383967e+00 +3.0608514792779777e+00 -2.4390000933956170e+01 +3.2657623734720505e+03 -1.4638660370867533e+05 -2.0054217076765373e+07 
-4.7499999999999911e+00 -5.5449653306330937e-01 +7.3270115916577945e+00 +3.0293449594752162e+00 -2.4615187627677273e+01 +3.2495254037536497e+03 -1.4315350782358789e+05 -1.9967170888633870e+07 
-4.7999999999999909e+00 -5.5453141625193036e-01 +7.3287211353313042e+00 +2.9978857891843749e+00 -2.4847650038765412e+01 +3.2312152012520264e+03 -1.3986243387945835e+05 -1.9867124145259000e+07 
-4.8499999999999908e+00 -5.5456647746681886e-01 +7.3304369793966107e+00 +2.9664791644551594e+00 -2.5085501260226948e+01 +3.2108246141823270e+03 -1.3652742539465625e+05 -1.9754048902279928e+07 
-4.8999999999999906e+00 -5.5460171373612299e-01 +7.3321588799852266e+00 +2.9351302775838946e+00 -2.5326854162729408e+01 +3.1883465891081100e+03 -1.3316252765986184e+05 -1.9627917864584357e+07 
-4.9499999999999904e+00 -5.5463712208798643e-01 +7.3338865932315933e+00 +2.9038443210200713e+00 -2.5569821755295173e+01 +3.1637740648969298e+03 -1.2978178482039465e+05 -1.9488703667368677e+07 
-4.9999999999999902e+00 -5.5467269955055143e-01 +7.3356198752672883e+00 +2.8726264881386308e+00 -2.5812516926956949e+01 +3.1370999532226938e+03 -1.2639924209346186e+05 -1.9336378750534233e+07 
-5.0499999999999901e+00 -5.5470844315193524e-01 +7.3373584822231930e+00 +2.8414819690279187e+00 -2.6053052580609680e+01 +3.1083172486140106e+03 -1.2302894446547629e+05 -1.9170916084534097e+07 
