# field on trajectory
# s[mm] rx[mm] ry[mm] rz[mm] bx[T] by[T] bz[T]
0.0000000000000000e+00 +8.5980000000000008e+00 +0.0000000000000000e+00 +0.0000000000000000e+00 -2.7471268574946864e-02 -5.2249613452388666e-01 +5.0869954695996868e-03
5.0000000000000003e-02 +8.5979999310729553e+00 +0.0000000000000000e+00 +4.9999999999936658e-02 -2.7470938924289482e-02 -5.2248835178296638e-01 +5.0872147130134222e-03
1.0000000000000001e-01 +8.5979997242931727e+00 +0.0000000000000000e+00 +9.9999999999493244e-02 -2.7470628217705777e-02 -5.2248093124127137e-01 +5.0874401372132359e-03
1.5000000000000002e-01 +8.5979993796626122e+00 +0.0000000000000000e+00 +1.4999999999828970e-01 -2.7470336373185647e-02 -5.2247387286005786e-01 +5.0876717077088787e-03
2.0000000000000001e-01 +8.5979988971831336e+00 +0.0000000000000000e+00 +1.9999999999594598e-01 -2.7470063308719650e-02 -5.2246717660059927e-01 +5.0879093900102488e-03
2.5000000000000000e-01 +8.5979982768565062e+00 +0.0000000000000000e+00 +2.4999999999208208e-01 -2.7469808942299081e-02 -5.2246084242418867e-01 +5.0881531496274014e-03
2.9999999999999999e-01 +8.5979975186843998e+00 +0.0000000000000000e+00 +2.9999999998631799e-01 -2.7469573191915883e-02 -5.2245487029213555e-01 +5.0884029520705532e-03
3.4999999999999998e-01 +8.5979966226683899e+00 +0.0000000000000000e+00 +3.4999999997827369e-01 -2.7469355975562746e-02 -5.2244926016576787e-01 +5.0886587628501002e-03
3.9999999999999997e-01 +8.5979955888099564e+00 +0.0000000000000000e+00 +3.9999999996756924e-01 -2.7469157211233147e-02 -5.2244401200643065e-01 +5.0889205474766216e-03
4.4999999999999996e-01 +8.5979944171104847e+00 +0.0000000000000000e+00 +4.4999999995382461e-01 -2.7468976816921297e-02 -5.2243912577548757e-01 +5.0891882714608812e-03
4.9999999999999994e-01 +8.5979931075712646e+00 +0.0000000000000000e+00 +4.9999999993665983e-01 -2.7468814710622205e-02 -5.2243460143431919e-01 +5.0894619003138486e-03
5.4999999999999993e-01 +8.5979916601934878e+00 +0.0000000000000000e+00 +5.4999999991569504e-01 -2.7468670810331677e-02 -5.2243043894432351e-01 +5.0897413995466927e-03
5.9999999999999998e-01 +8.5979900749782541e+00 +0.0000000000000000e+00 +5.9999999989055008e-01 -2.7468545034046370e-02 -5.2242663826691660e-01 +5.0900267346708035e-03
6.5000000000000002e-01 +8.5979883519265670e+00 +0.0000000000000000e+00 +6.4999999986084522e-01 -2.7468437299763719e-02 -5.2242319936353021e-01 +5.0903178711977862e-03
7.0000000000000007e-01 +8.5979864910393324e+00 +0.0000000000000000e+00 +6.9999999982620043e-01 -2.7468347525482092e-02 -5.2242012219561573e-01 +5.0906147746394856e-03
7.5000000000000011e-01 +8.5979844923173623e+00 +0.0000000000000000e+00 +7.4999999978623566e-01 -2.7468275629200730e-02 -5.2241740672463932e-01 +5.0909174105079856e-03
8.0000000000000016e-01 +8.5979823557613742e+00 +0.0000000000000000e+00 +7.9999999974057112e-01 -2.7468221528919732e-02 -5.2241505291208612e-01 +5.0912257443156078e-03
8.5000000000000020e-01 +8.5979800813719880e+00 +0.0000000000000000e+00 +8.4999999968882678e-01 -2.7468185142640152e-02 -5.2241306071945692e-01 +5.0915397415749438e-03
9.0000000000000024e-01 +8.5979776691497296e+00 +0.0000000000000000e+00 +8.9999999963062283e-01 -2.7468166388363954e-02 -5.2241143010826985e-01 +5.0918593677988337e-03
9.5000000000000029e-01 +8.5979751190950289e+00 +0.0000000000000000e+00 +9.4999999956557923e-01 -2.7468165184094114e-02 -5.2241016104005999e-01 +5.0921845885004069e-03
1.0000000000000002e+00 +8.5979724312082215e+00 +0.0000000000000000e+00 +9.9999999949331608e-01 -2.7468181447834489e-02 -5.2240925347637901e-01 +5.0925153691930508e-03
1.0500000000000003e+00 +8.5979696054895474e+00 +0.0000000000000000e+00 +1.0499999994134535e+00 -2.7468215097590024e-02 -5.2240870737879508e-01 +5.0928516753904664e-03
1.1000000000000003e+00 +8.5979666419391485e+00 +0.0000000000000000e+00 +1.0999999993256113e+00 -2.7468266051366635e-02 -5.2240852270889326e-01 +5.0931934726066328e-03
1.1500000000000004e+00 +8.5979635405570765e+00 +0.0000000000000000e+00 +1.1499999992294099e+00 -2.7468334227171275e-02 -5.2240869942827461e-01 +5.0935407263558415e-03
1.2000000000000004e+00 +8.5979603013432833e+00 +0.0000000000000000e+00 +1.1999999991244690e+00 -2.7468419543011942e-02 -5.2240923749855728e-01 +5.0938934021526943e-03
1.2500000000000004e+00 +8.5979569242976268e+00 +0.0000000000000000e+00 +1.2499999990104087e+00 -2.7468521916897720e-02 -5.2241013688137516e-01 +5.0942514655121169e-03
1.3000000000000005e+00 +8.5979534094198691e+00 +0.0000000000000000e+00 +1.2999999988868491e+00 -2.7468641266838782e-02 -5.2241139753837862e-01 +5.0946148819493615e-03
1.3500000000000005e+00 +8.5979497567096779e+00 +0.0000000000000000e+00 +1.3499999987534104e+00 -2.7468777510846375e-02 -5.2241301943123364e-01 +5.0949836169800183e-03
1.4000000000000006e+00 +8.5979459661666269e+00 +0.0000000000000000e+00 +1.3999999986097125e+00 -2.7468930566932920e-02 -5.2241500252162321e-01 +5.0953576361200265e-03
1.4500000000000006e+00 +8.5979420377901903e+00 +0.0000000000000000e+00 +1.4499999984553753e+00 -2.7469100353111967e-02 -5.2241734677124585e-01 +5.0957369048856734e-03
1.5000000000000007e+00 +8.5979379715797517e+00 +0.0000000000000000e+00 +1.4999999982900187e+00 -2.7469286787398212e-02 -5.2242005214181575e-01 +5.0961213887936131e-03
1.5500000000000007e+00 +8.5979337675345970e+00 +0.0000000000000000e+00 +1.5499999981132631e+00 -2.7469489787807569e-02 -5.2242311859506296e-01 +5.0965110533608676e-03
1.6000000000000008e+00 +8.5979294256539163e+00 +0.0000000000000000e+00 +1.5999999979247279e+00 -2.7469709272357114e-02 -5.2242654609273365e-01 +5.0969058641048360e-03
1.6500000000000008e+00 +8.5979249459368070e+00 +0.0000000000000000e+00 +1.6499999977240334e+00 -2.7469945159065184e-02 -5.2243033459658927e-01 +5.0973057865433087e-03
1.7000000000000008e+00 +8.5979203283822674e+00 +0.0000000000000000e+00 +1.6999999975107996e+00 -2.7470197365951337e-02 -5.2243448406840720e-01 +5.0977107861944673e-03
1.7500000000000009e+00 +8.5979155729892049e+00 +0.0000000000000000e+00 +1.7499999972846461e+00 -2.7470465811036380e-02 -5.2243899446997966e-01 +5.0981208285768922e-03
1.8000000000000009e+00 +8.5979106797564278e+00 +0.0000000000000000e+00 +1.7999999970451930e+00 -2.7470750412342433e-02 -5.2244386576311519e-01 +5.0985358792095892e-03
1.8500000000000010e+00 +8.5979056486826515e+00 +0.0000000000000000e+00 +1.8499999967920602e+00 -2.7471051087892880e-02 -5.2244909790963667e-01 +5.0989559036119627e-03
1.9000000000000010e+00 +8.5979004797664960e+00 +0.0000000000000000e+00 +1.8999999965248675e+00 -2.7471367755712434e-02 -5.2245469087138319e-01 +5.0993808673038639e-03
1.9500000000000011e+00 +8.5978951730064850e+00 +0.0000000000000000e+00 +1.9499999962432346e+00 -2.7471700333827145e-02 -5.2246064461020802e-01 +5.0998107358055655e-03
2.0000000000000009e+00 +8.5978897284010483e+00 +0.0000000000000000e+00 +1.9999999959467816e+00 -2.7472048740264401e-02 -5.2246695908798013e-01 +5.1002454746377933e-03
2.0500000000000007e+00 +8.5978841459485196e+00 +0.0000000000000000e+00 +2.0499999956351278e+00 -2.7472412918732161e-02 -5.2247363399741997e-01 +5.1006850500102570e-03
2.1000000000000005e+00 +8.5978784256471386e+00 +0.0000000000000000e+00 +2.0999999953078934e+00 -2.7472792915656411e-02 -5.2248066795460668e-01 +5.1011294308871942e-03
2.1500000000000004e+00 +8.5978725674950489e+00 +0.0000000000000000e+00 +2.1499999949646980e+00 -2.7473188803143839e-02 -5.2248805930646880e-01 +5.1015785869216405e-03
2.2000000000000002e+00 +8.5978665714903002e+00 +0.0000000000000000e+00 +2.1999999946051614e+00 -2.7473600653302701e-02 -5.2249580639994775e-01 +5.1020324877668593e-03
2.2500000000000000e+00 +8.5978604376308496e+00 +0.0000000000000000e+00 +2.2499999942289031e+00 -2.7474028538242865e-02 -5.2250390758199761e-01 +5.1024911030763485e-03
2.2999999999999998e+00 +8.5978541659145584e+00 +0.0000000000000000e+00 +2.2999999938355429e+00 -2.7474472530075827e-02 -5.2251236119958488e-01 +5.1029544025038287e-03
2.3499999999999996e+00 +8.5978477563391973e+00 +0.0000000000000000e+00 +2.3499999934247007e+00 -2.7474932700914671e-02 -5.2252116559968820e-01 +5.1034223557032401e-03
2.3999999999999995e+00 +8.5978412089024427e+00 +0.0000000000000000e+00 +2.3999999929959954e+00 -2.7475409122874227e-02 -5.2253031912929870e-01 +5.1038949323287362e-03
2.4499999999999993e+00 +8.5978345236018807e+00 +0.0000000000000000e+00 +2.4499999925490470e+00 -2.7475901868070973e-02 -5.2253982013541833e-01 +5.1043721020346744e-03
2.4999999999999991e+00 +8.5978277004350048e+00 +0.0000000000000000e+00 +2.4999999920834752e+00 -2.7476411008623140e-02 -5.2254966696506178e-01 +5.1048538344756218e-03
2.5499999999999989e+00 +8.5978207393992161e+00 +0.0000000000000000e+00 +2.5499999915988991e+00 -2.7476936616650731e-02 -5.2255985796525473e-01 +5.1053400993063399e-03
2.5999999999999988e+00 +8.5978136404918253e+00 +0.0000000000000000e+00 +2.5999999910949385e+00 -2.7477478764275483e-02 -5.2257039148303419e-01 +5.1058308661817804e-03
2.6499999999999986e+00 +8.5978064037100541e+00 +0.0000000000000000e+00 +2.6499999905712124e+00 -2.7478037523620956e-02 -5.2258126586544829e-01 +5.1063261047570880e-03
2.6999999999999984e+00 +8.5977990290510338e+00 +0.0000000000000000e+00 +2.6999999900273406e+00 -2.7478612966812560e-02 -5.2259247945955578e-01 +5.1068257846875829e-03
2.7499999999999982e+00 +8.5977915165118066e+00 +0.0000000000000000e+00 +2.7499999894629421e+00 -2.7479205165977540e-02 -5.2260403061242655e-01 +5.1073298756287664e-03
2.7999999999999980e+00 +8.5977838660893227e+00 +0.0000000000000000e+00 +2.7999999888776368e+00 -2.7479814193245047e-02 -5.2261591767114068e-01 +5.1078383472363074e-03
2.8499999999999979e+00 +8.5977760777804484e+00 +0.0000000000000000e+00 +2.8499999882710432e+00 -2.7480440120746130e-02 -5.2262813898278893e-01 +5.1083511691660420e-03
2.8999999999999977e+00 +8.5977681515819580e+00 +0.0000000000000000e+00 +2.8999999876427811e+00 -2.7481083020613802e-02 -5.2264069289447157e-01 +5.1088683110739703e-03
2.9499999999999975e+00 +8.5977600874905402e+00 +0.0000000000000000e+00 +2.9499999869924696e+00 -2.7481742964982982e-02 -5.2265357775329935e-01 +5.1093897426162434e-03
2.9999999999999973e+00 +8.5977518855027935e+00 +0.0000000000000000e+00 +2.9999999863197275e+00 -2.7482420025990655e-02 -5.2266679190639276e-01 +5.1099154334491650e-03
3.0499999999999972e+00 +8.5977435456152342e+00 +0.0000000000000000e+00 +3.0499999856241744e+00 -2.7483114275775777e-02 -5.2268033370088107e-01 +5.1104453532291811e-03
3.0999999999999970e+00 +8.5977350678242885e+00 +0.0000000000000000e+00 +3.0999999849054292e+00 -2.7483825786479350e-02 -5.2269420148390378e-01 +5.1109794716128780e-03
3.1499999999999968e+00 +8.5977264521262970e+00 +0.0000000000000000e+00 +3.1499999841631108e+00 -2.7484554630244483e-02 -5.2270839360260957e-01 +5.1115177582569818e-03
3.1999999999999966e+00 +8.5977176985175152e+00 +0.0000000000000000e+00 +3.1999999833968382e+00 -2.7485300879216325e-02 -5.2272290840415536e-01 +5.1120601828183393e-03
3.2499999999999964e+00 +8.5977088069941150e+00 +0.0000000000000000e+00 +3.2499999826062305e+00 -2.7486064605542204e-02 -5.2273774423570740e-01 +5.1126067149539238e-03
3.2999999999999963e+00 +8.5976997775521813e+00 +0.0000000000000000e+00 +3.2999999817909065e+00 -2.7486845881371576e-02 -5.2275289944444048e-01 +5.1131573243208342e-03
3.3499999999999961e+00 +8.5976906101877155e+00 +0.0000000000000000e+00 +3.3499999809504848e+00 -2.7487644778856068e-02 -5.2276837237753759e-01 +5.1137119805762712e-03
3.3999999999999959e+00 +8.5976813048966374e+00 +0.0000000000000000e+00 +3.3999999800845844e+00 -2.7488461370149521e-02 -5.2278416138218986e-01 +5.1142706533775506e-03
3.4499999999999957e+00 +8.5976718616747796e+00 +0.0000000000000000e+00 +3.4499999791928242e+00 -2.7489295727407995e-02 -5.2280026480559660e-01 +5.1148333123820864e-03
3.4999999999999956e+00 +8.5976622805178931e+00 +0.0000000000000000e+00 +3.4999999782748228e+00 -2.7490147922789820e-02 -5.2281668099496559e-01 +5.1153999272473966e-03
3.5499999999999954e+00 +8.5976525614216470e+00 +0.0000000000000000e+00 +3.5499999773301987e+00 -2.7491018028455608e-02 -5.2283340829751068e-01 +5.1159704676310798e-03
3.5999999999999952e+00 +8.5976427043816290e+00 +0.0000000000000000e+00 +3.5999999763585704e+00 -2.7491906116568269e-02 -5.2285044506045464e-01 +5.1165449031908379e-03
3.6499999999999950e+00 +8.5976327093933431e+00 +0.0000000000000000e+00 +3.6499999753595564e+00 -2.7492812259293065e-02 -5.2286778963102654e-01 +5.1171232035844378e-03
3.6999999999999948e+00 +8.5976225764522152e+00 +0.0000000000000000e+00 +3.6999999743327758e+00 -2.7493736528797601e-02 -5.2288544035646323e-01 +5.1177053384697368e-03
3.7499999999999947e+00 +8.5976123055535858e+00 +0.0000000000000000e+00 +3.7499999732778462e+00 -2.7494678997251897e-02 -5.2290339558400778e-01 +5.1182912775046474e-03
3.7999999999999945e+00 +8.5976018966927192e+00 +0.0000000000000000e+00 +3.7999999721943865e+00 -2.7495639736828364e-02 -5.2292165366091048e-01 +5.1188809903471647e-03
3.8499999999999943e+00 +8.5975913498647980e+00 +0.0000000000000000e+00 +3.8499999710820147e+00 -2.7496618819701869e-02 -5.2294021293442761e-01 +5.1194744466553314e-03
3.8999999999999941e+00 +8.5975806650649265e+00 +0.0000000000000000e+00 +3.8999999699403496e+00 -2.7497616318049759e-02 -5.2295907175182188e-01 +5.1200716160872501e-03
3.9499999999999940e+00 +8.5975698422881273e+00 +0.0000000000000000e+00 +3.9499999687690086e+00 -2.7498632304051841e-02 -5.2297822846036235e-01 +5.1206724683010747e-03
3.9999999999999938e+00 +8.5975588815293484e+00 +0.0000000000000000e+00 +3.9999999675676103e+00 -2.7499666849890476e-02 -5.2299768140732339e-01 +5.1212769729550005e-03
4.0499999999999936e+00 +8.5975477827834563e+00 +0.0000000000000000e+00 +4.0499999663357729e+00 -2.7500719975951032e-02 -5.2301742885087488e-01 +5.1218850948782247e-03
4.0999999999999934e+00 +8.5975365460452409e+00 +0.0000000000000000e+00 +4.0999999650731143e+00 -2.7501791495421569e-02 -5.2303746869274692e-01 +5.1224967795836440e-03
4.1499999999999932e+00 +8.5975251713094156e+00 +0.0000000000000000e+00 +4.1499999637792522e+00 -2.7502881169689367e-02 -5.2305779874556591e-01 +5.1231119677547180e-03
4.1999999999999931e+00 +8.5975136585706160e+00 +0.0000000000000000e+00 +4.1999999624538047e+00 -2.7503988760140218e-02 -5.2307841682196721e-01 +5.1237306000744762e-03
4.2499999999999929e+00 +8.5975020078234028e+00 +0.0000000000000000e+00 +4.2499999610963899e+00 -2.7505114028158365e-02 -5.2309932073459287e-01 +5.1243526172255046e-03
4.2999999999999927e+00 +8.5974902190622604e+00 +0.0000000000000000e+00 +4.2999999597066250e+00 -2.7506256735126362e-02 -5.2312050829609391e-01 +5.1249779598899169e-03
4.3499999999999925e+00 +8.5974782922816004e+00 +0.0000000000000000e+00 +4.3499999582841280e+00 -2.7507416642425026e-02 -5.2314197731912870e-01 +5.1256065687493449e-03
4.3999999999999924e+00 +8.5974662274757563e+00 +0.0000000000000000e+00 +4.3999999568285171e+00 -2.7508593511433335e-02 -5.2316372561636304e-01 +5.1262383844849100e-03
4.4499999999999922e+00 +8.5974540246389921e+00 +0.0000000000000000e+00 +4.4499999553394085e+00 -2.7509787103528294e-02 -5.2318575100047071e-01 +5.1268733477772190e-03
4.4999999999999920e+00 +8.5974416837654957e+00 +0.0000000000000000e+00 +4.4999999538164213e+00 -2.7510997180084880e-02 -5.2320805128413239e-01 +5.1275113993063315e-03
4.5499999999999918e+00 +8.5974292048493837e+00 +0.0000000000000000e+00 +4.5499999522591716e+00 -2.7512223502475942e-02 -5.2323062428003675e-01 +5.1281524797517483e-03
4.5999999999999917e+00 +8.5974165878847018e+00 +0.0000000000000000e+00 +4.5999999506672777e+00 -2.7513465832072124e-02 -5.2325346780087900e-01 +5.1287965297923902e-03
4.6499999999999915e+00 +8.5974038328654210e+00 +0.0000000000000000e+00 +4.6499999490403567e+00 -2.7514723930241687e-02 -5.2327657965936214e-01 +5.1294434901065821e-03
4.6999999999999913e+00 +8.5973909397854449e+00 +0.0000000000000000e+00 +4.6999999473780258e+00 -2.7515997558350540e-02 -5.2329995766819515e-01 +5.1300933013720277e-03
4.7499999999999911e+00 +8.5973779086386060e+00 +0.0000000000000000e+00 +4.7499999456799022e+00 -2.7517286477762051e-02 -5.2332359964009512e-01 +5.1307459042658054e-03
4.7999999999999909e+00 +8.5973647394186656e+00 +0.0000000000000000e+00 +4.7999999439456031e+00 -2.7518590449836993e-02 -5.2334750338778557e-01 +5.1314012394643336e-03
4.8499999999999908e+00 +8.5973514321193178e+00 +0.0000000000000000e+00 +4.8499999421747448e+00 -2.7519909235933424e-02 -5.2337166672399582e-01 +5.1320592476433533e-03
4.8999999999999906e+00 +8.5973379867341890e+00 +0.0000000000000000e+00 +4.8999999403669454e+00 -2.7521242597406643e-02 -5.2339608746146304e-01 +5.1327198694779289e-03
4.9499999999999904e+00 +8.5973244032568346e+00 +0.0000000000000000e+00 +4.9499999385218212e+00 -2.7522590295609037e-02 -5.2342076341293031e-01 +5.1333830456424048e-03
4.9999999999999902e+00 +8.5973106816807441e+00 +0.0000000000000000e+00 +4.9999999366389885e+00 -2.7523952091890010e-02 -5.2344569239114680e-01 +5.1340487168103945e-03
5.0499999999999901e+00 +8.5972968219993398e+00 +0.0000000000000000e+00 +5.0499999347180644e+00 -2.7525327747595904e-02 -5.2347087220886812e-01 +5.1347168236547747e-03
5.0999999999999899e+00 +8.5972828242059798e+00 +0.0000000000000000e+00 +5.0999999327586663e+00 -2.7526717024069881e-02 -5.2349630067885677e-01 +5.1353873068476514e-03
5.1499999999999897e+00 +8.5972686882939549e+00 +0.0000000000000000e+00 +5.1499999307604103e+00 -2.7528119682651866e-02 -5.2352197561387992e-01 +5.1360601070603472e-03
5.1999999999999895e+00 +8.5972544142564917e+00 +0.0000000000000000e+00 +5.1999999287229128e+00 -2.7529535484678399e-02 -5.2354789482671227e-01 +5.1367351649633797e-03
5.2499999999999893e+00 +8.5972400020867514e+00 +0.0000000000000000e+00 +5.2499999266457902e+00 -2.7530964191482554e-02 -5.2357405613013308e-01 +5.1374124212264479e-03
5.2999999999999892e+00 +8.5972254517778310e+00 +0.0000000000000000e+00 +5.2999999245286595e+00 -2.7532405564393889e-02 -5.2360045733692762e-01 +5.1380918165184085e-03
5.3499999999999890e+00 +8.5972107633227655e+00 +0.0000000000000000e+00 +5.3499999223711363e+00 -2.7533859364738317e-02 -5.2362709625988679e-01 +5.1387732915072629e-03
5.3999999999999888e+00 +8.5971959367145274e+00 +0.0000000000000000e+00 +5.3999999201728368e+00 -2.7535325353838021e-02 -5.2365397071180786e-01 +5.1394567868601323e-03
5.4499999999999886e+00 +8.5971809719460257e+00 +0.0000000000000000e+00 +5.4499999179333782e+00 -2.7536803293011326e-02 -5.2368107850549261e-01 +5.1401422432432418e-03
5.4999999999999885e+00 +8.5971658690101087e+00 +0.0000000000000000e+00 +5.4999999156523751e+00 -2.7538292943572663e-02 -5.2370841745374785e-01 +5.1408296013219041e-03
5.5499999999999883e+00 +8.5971506278995626e+00 +0.0000000000000000e+00 +5.5499999133294446e+00 -2.7539794066832431e-02 -5.2373598536938659e-01 +5.1415188017604942e-03
5.5999999999999881e+00 +8.5971352486071151e+00 +0.0000000000000000e+00 +5.5999999109642022e+00 -2.7541306424096915e-02 -5.2376378006522617e-01 +5.1422097852224392e-03
5.6499999999999879e+00 +8.5971197311254333e+00 +0.0000000000000000e+00 +5.6499999085562642e+00 -2.7542829776668221e-02 -5.2379179935408926e-01 +5.1429024923701919e-03
5.6999999999999877e+00 +8.5971040754471240e+00 +0.0000000000000000e+00 +5.6999999061052460e+00 -2.7544363885844109e-02 -5.2382004104880320e-01 +5.1435968638652227e-03
5.7499999999999876e+00 +8.5970882815647354e+00 +0.0000000000000000e+00 +5.7499999036107630e+00 -2.7545908512917980e-02 -5.2384850296220042e-01 +5.1442928403679844e-03
5.7999999999999874e+00 +8.5970723494707588e+00 +0.0000000000000000e+00 +5.7999999010724306e+00 -2.7547463419178724e-02 -5.2387718290711727e-01 +5.1449903625379063e-03
5.8499999999999872e+00 +8.5970562791576288e+00 +0.0000000000000000e+00 +5.8499998984898651e+00 -2.7549028365910670e-02 -5.2390607869639605e-01 +5.1456893710333761e-03
5.8999999999999870e+00 +8.5970400706177212e+00 +0.0000000000000000e+00 +5.8999998958626811e+00 -2.7550603114393449e-02 -5.2393518814288209e-01 +5.1463898065117137e-03
