# multipoles
# s[mm] polynom_b[n=0][T/m^n] polynom_b[n=1][T/m^n] polynom_b[n=2][T/m^n] polynom_b[n=3][T/m^n] polynom_b[n=4][T/m^n] polynom_b[n=5][T/m^n] polynom_b[n=6][T/m^n] 
+0.0000000000000000e+00 -5.5225273703146427e-01 +7.2386681652959250e+00 +5.1753973564909135e+00 -5.0871488302097823e+01 +1.1086782776828406e+04 -2.8609852411737422e+04 -6.0991767657784514e+07 
+5.0000000000000003e-02 -5.5225160324203926e-01 +7.2386185243650027e+00 +5.1820447725979255e+00 -5.0850206253610857e+01 +1.0980621281847265e+04 -2.9867504433930604e+04 -6.0408489385668978e+07 
+1.0000000000000001e-01 -5.5225084574013905e-01 +7.2385880524962980e+00 +5.1884148499762226e+00 -5.0807535041011548e+01 +1.0872974981724781e+04 -3.1213597674460383e+04 -5.9822785593856245e+07 
+1.5000000000000002e-01 -5.5225046371009867e-01 +7.2385767280489057e+00 +5.1945045037719790e+00 -5.0744369543096838e+01 +1.0763841672436016e+04 -3.2641518035389039e+04 -5.9234395249786183e+07 
+2.0000000000000001e-01 -5.5225045633624503e-01 +7.2385845293788584e+00 +5.2003106455567369e+00 -5.0661604481173825e+01 +1.0653219240275717e+04 -3.4144652744797982e+04 -5.8643057911978178e+07 
+2.5000000000000000e-01 -5.5225082280293469e-01 +7.2386114348432411e+00 +5.2058301890267114e+00 -5.0560134596687369e+01 +1.0541105514220235e+04 -3.5716388838948908e+04 -5.8048512754529022e+07 
+2.9999999999999999e-01 -5.5225156229455108e-01 +7.2386574227985214e+00 +5.2110600491610590e+00 -5.0440854582552689e+01 +1.0427498291225931e+04 -3.7350113732689533e+04 -5.7450498743092827e+07 
+3.4999999999999998e-01 -5.5225267399546363e-01 +7.2387224716021032e+00 +5.2159971361858553e+00 -5.0304659144827525e+01 +1.0312395491700870e+04 -3.9039214737954615e+04 -5.6848755664783604e+07 
+3.9999999999999997e-01 -5.5225415709008896e-01 +7.2388065596149387e+00 +5.2206383654494672e+00 -5.0152443123695122e+01 +1.0195794897930466e+04 -4.0777077976573004e+04 -5.6243022371816002e+07 
+4.4999999999999996e-01 -5.5225601076285025e-01 +7.2389096651929812e+00 +5.2249806505157341e+00 -4.9985101117067281e+01 +1.0077694341180670e+04 -4.2557091618935876e+04 -5.5633038057294123e+07 
+4.9999999999999994e-01 -5.5225823419818310e-01 +7.2390317666970621e+00 +5.2290209039901994e+00 -4.9803527899554979e+01 +9.9580916783719513e+03 -4.4372642359385478e+04 -5.5018542082613856e+07 
+5.4999999999999993e-01 -5.5226082658053355e-01 +7.2391728424841864e+00 +5.2327560379427771e+00 -4.9608618076957917e+01 +9.8369847791885695e+03 -4.6217118222713565e+04 -5.4399273897799708e+07 
+5.9999999999999998e-01 -5.5226378709438162e-01 +7.2393328709187914e+00 +5.2361829673622848e+00 -4.9401266520818297e+01 +9.7143714310068299e+03 -4.8083905093107394e+04 -5.3774972380295932e+07 
+6.5000000000000002e-01 -5.5226711492421698e-01 +7.2395118303569914e+00 +5.2392986059402711e+00 -4.9182367741021729e+01 +9.5902494605768770e+03 -4.9966391800144527e+04 -5.3145376693956465e+07 
+7.0000000000000007e-01 -5.5227080925453398e-01 +7.2397096991632051e+00 +5.2420998650766979e+00 -4.8952816564566739e+01 +9.4646167556899200e+03 -5.1857964551183497e+04 -5.2510226413942695e+07 
+7.5000000000000011e-01 -5.5227486926985814e-01 +7.2399264556987868e+00 +5.2445836595264028e+00 -4.8713507674958855e+01 +9.3374711101533121e+03 -5.3752010704269131e+04 -5.1869260471549958e+07 
+8.0000000000000016e-01 -5.5227929415471588e-01 +7.2401620783237099e+00 +5.2467469005984464e+00 -4.8465335651831040e+01 +9.2088104117257881e+03 -5.5641918538861042e+04 -5.1222218434107833e+07 
+8.5000000000000020e-01 -5.5228408309367194e-01 +7.2404165454027991e+00 +5.2485865042759450e+00 -4.8209195269559025e+01 +9.0786324205278925e+03 -5.7521074652451716e+04 -5.0568839008393511e+07 
+9.0000000000000024e-01 -5.5228923527128326e-01 +7.2406898352990181e+00 +5.2500993816191261e+00 -4.7945981181493700e+01 +8.9469350326031290e+03 -5.9382866712339994e+04 -4.9908861830453292e+07 
+9.5000000000000029e-01 -5.5229474987213756e-01 +7.2409819263761257e+00 +5.2512824465998644e+00 -4.7676588067027332e+01 +8.8137160625586803e+03 -6.1220682079840743e+04 -4.9242025976955242e+07 
+1.0000000000000002e+00 -5.5230062608083708e-01 +7.2412927969998178e+00 +5.2521326131272046e+00 -4.7401910640085610e+01 +8.6789733243594983e+03 -6.3027907913010335e+04 -4.8568070516089298e+07 
+1.0500000000000003e+00 -5.5230686308199273e-01 +7.2416224255337571e+00 +5.2526467937314552e+00 -4.7122843508500345e+01 +8.5427046729693484e+03 -6.4797932225075630e+04 -4.7886734809648179e+07 
+1.1000000000000003e+00 -5.5231346006024717e-01 +7.2419707903447499e+00 +5.2528219034622632e+00 -4.6840281384112728e+01 +8.4049078938516523e+03 -6.6524142164136632e+04 -4.7197757744368397e+07 
+1.1500000000000004e+00 -5.5232041620024075e-01 +7.2423378697979111e+00 +5.2526548544996388e+00 -4.6555118877834190e+01 +8.2655808487237937e+03 -6.8199925738900885e+04 -4.6500878722335048e+07 
+1.2000000000000004e+00 -5.5232773068663776e-01 +7.2427236422627130e+00 +5.2521425604080951e+00 -4.6268250754070088e+01 +8.1247213631697323e+03 -6.9818669683331507e+04 -4.5795836908180170e+07 
+1.2500000000000004e+00 -5.5233540270412151e-01 +7.2431280861047078e+00 +5.2512819354143119e+00 -4.5980571585365453e+01 +7.9823272428089749e+03 -7.1373762327718898e+04 -4.5082371326015107e+07 
+1.3000000000000005e+00 -5.5234343143739550e-01 +7.2435511796926129e+00 +5.2500698945256703e+00 -4.5692976043291424e+01 +7.8383962727315884e+03 -7.2858591206290555e+04 -4.4360220866701387e+07 
+1.3500000000000005e+00 -5.5235181607116346e-01 +7.2439929013970206e+00 +5.2485033499025882e+00 -4.5406358854940187e+01 +7.6929263170287895e+03 -7.4266543384123928e+04 -4.3629124965651706e+07 
+1.4000000000000006e+00 -5.5236055579015053e-01 +7.2444532295862487e+00 +5.2465792147958776e+00 -4.5121614613189827e+01 +7.5459152091381948e+03 -7.5591007079981573e+04 -4.2888822848170221e+07 
+1.4500000000000006e+00 -5.5236964977911263e-01 +7.2449321426325710e+00 +5.2442944055787581e+00 -4.4839638054293168e+01 +7.3973606946951368e+03 -7.6825369313097865e+04 -4.2139053137567461e+07 
+1.5000000000000007e+00 -5.5237909722280165e-01 +7.2454296189049483e+00 +5.2416458343583807e+00 -4.4561323732878485e+01 +7.2472606415735081e+03 -7.7963018671829253e+04 -4.1379555310294390e+07 
+1.5500000000000007e+00 -5.5238889730599661e-01 +7.2459456367778747e+00 +5.2386304162859485e+00 -4.4287566416579523e+01 +7.0956128283315902e+03 -7.8997341946875109e+04 -4.0610068218640655e+07 
+1.6000000000000008e+00 -5.5239904921349436e-01 +7.2464801746219321e+00 +5.2352450663487868e+00 -4.4019260667176979e+01 +6.9424150424725321e+03 -7.9921727702248842e+04 -3.9830330792704470e+07 
+1.6500000000000008e+00 -5.5240955213009435e-01 +7.2470332108114510e+00 +5.2314866973076697e+00 -4.3757301187701117e+01 +6.7876651329944634e+03 -8.0729563275927896e+04 -3.9040082387736097e+07 
+1.7000000000000008e+00 -5.5242040524063085e-01 +7.2476047237204888e+00 +5.2273522260139522e+00 -4.3502582609846911e+01 +6.6313608314147014e+03 -8.1414236750512515e+04 -3.8239061540394984e+07 
+1.7500000000000009e+00 -5.5243160772993627e-01 +7.2481946917255113e+00 +5.2228385655587797e+00 -4.3255999662998192e+01 +6.4734999796166358e+03 -8.1969135286296980e+04 -3.7427007570339963e+07 
+1.8000000000000009e+00 -5.5244315878287320e-01 +7.2488030932015191e+00 +5.2179426319829396e+00 -4.3018446962714393e+01 +6.3140803361831731e+03 -8.2387647108907142e+04 -3.6603659223405689e+07 
+1.8500000000000010e+00 -5.5245505758430591e-01 +7.2494299065254939e+00 +5.2126613393620609e+00 -4.2790819179086427e+01 +6.1530997112973928e+03 -8.2663159991782493e+04 -3.5768755593291335e+07 
+1.9000000000000010e+00 -5.5246730331912464e-01 +7.2500751100736833e+00 +5.2069916031005219e+00 -4.2574010924668649e+01 +5.9905558831425478e+03 -8.2789062195694816e+04 -3.4922035572017863e+07 
+1.9500000000000011e+00 -5.5247989517223073e-01 +7.2507386822239148e+00 +5.2009303385424346e+00 -4.2368916838390732e+01 +5.8264466288794674e+03 -8.2758741812841545e+04 -3.4063238042547025e+07 
+2.0000000000000009e+00 -5.5249283232855362e-01 +7.2514206013592073e+00 +5.1944744629015229e+00 -4.2176431729012599e+01 +5.6607696773989155e+03 -8.2565585600430000e+04 -3.3192101567674015e+07 
+2.0500000000000007e+00 -5.5250611378772607e-01 +7.2521208312359802e+00 +5.1876205213063900e+00 -4.1997252957638743e+01 +5.4935660812704864e+03 -8.2205008609266093e+04 -3.2308677290909953e+07 
+2.1000000000000005e+00 -5.5251973780779329e-01 +7.2528392729662770e+00 +5.1803638964676946e+00 -4.1831345433071974e+01 +5.3250473696858280e+03 -8.1680295460412395e+04 -3.1414229470679525e+07 
+2.1500000000000004e+00 -5.5253370246125388e-01 +7.2535758109546071e+00 +5.1726997555130190e+00 -4.1678505084896436e+01 +5.1554674536153880e+03 -8.0996645393676168e+04 -3.0510319307901803e+07 
+2.2000000000000002e+00 -5.5254800582061092e-01 +7.2543303296067414e+00 +5.1646232649693982e+00 -4.1538527903092046e+01 +4.9850802507950821e+03 -8.0159257065950951e+04 -2.9598508009235021e+07 
+2.2500000000000000e+00 -5.5256264595839644e-01 +7.2551027133257371e+00 +5.1561295939783038e+00 -4.1411209729397818e+01 +4.8141396145560884e+03 -7.9173330450729278e+04 -2.8680356370604500e+07 
+2.2999999999999998e+00 -5.5257762094714979e-01 +7.2558928465203829e+00 +5.1472139103248900e+00 -4.1296346637751235e+01 +4.6428994364679193e+03 -7.8044063567196077e+04 -2.7757425447588969e+07 
+2.3499999999999996e+00 -5.5259292885941580e-01 +7.2567006135958287e+00 +5.1378713809377166e+00 -4.1193734527466852e+01 +4.4716136296368895e+03 -7.6776655917232274e+04 -2.6831276435018599e+07 
+2.3999999999999995e+00 -5.5260856776776235e-01 +7.2575258989613287e+00 +5.1280971747386657e+00 -4.1103169455399836e+01 +4.3005360548028566e+03 -7.5376305697390126e+04 -2.5903470179153964e+07 
+2.4499999999999993e+00 -5.5262453574475667e-01 +7.2583685870248740e+00 +5.1178864582053682e+00 -4.1024447421783968e+01 +4.1299206386310152e+03 -7.3848211544808379e+04 -2.4975567966817386e+07 
+2.4999999999999991e+00 -5.5264083086299620e-01 +7.2592285621945720e+00 +5.1072344009926640e+00 -4.0957364402767581e+01 +3.9600212243918413e+03 -7.2197572359587401e+04 -2.4049130527580183e+07 
+2.5499999999999989e+00 -5.5265745119507270e-01 +7.2601057088825778e+00 +5.0961361699537697e+00 -4.0901716545044657e+01 +3.7910917288747346e+03 -7.0429585577303282e+04 -2.3125719079211488e+07 
+2.5999999999999988e+00 -5.5267439481359049e-01 +7.2609999114987387e+00 +5.0845869318353429e+00 -4.0857299865264487e+01 +3.6233860763550388e+03 -6.8549449807125624e+04 -2.2206894904088635e+07 
+2.6499999999999986e+00 -5.5269165979118651e-01 +7.2619110544572116e+00 +5.0725818571223984e+00 -4.0823910563725107e+01 +3.4571580891033473e+03 -6.6562362074224642e+04 -2.1294218587036770e+07 
+2.6999999999999984e+00 -5.5270924420047518e-01 +7.2628390221667409e+00 +5.0601161103159109e+00 -4.0801344612449384e+01 +3.2926617523996915e+03 -6.4473521277005260e+04 -2.0389251816833317e+07 
+2.7499999999999982e+00 -5.5272714611411078e-01 +7.2637836990439721e+00 +5.0471848614733821e+00 -4.0789398275582755e+01 +3.1301508991575397e+03 -6.2288124006342281e+04 -1.9493555241934344e+07 
+2.7999999999999980e+00 -5.5274536360474380e-01 +7.2647449695009874e+00 +5.0337832771276139e+00 -4.0787867640313927e+01 +2.9698794660280105e+03 -6.0011368223206293e+04 -1.8608690239602607e+07 
+2.8499999999999979e+00 -5.5276389474503518e-01 +7.2657227179550334e+00 +5.0199065245560233e+00 -4.0796548988888283e+01 +2.8121013623497806e+03 -5.7648450335731337e+04 -1.7736217970130682e+07 
+2.8999999999999977e+00 -5.5278273760766694e-01 +7.2667168288218100e+00 +5.0055497721779245e+00 -4.0815238532846401e+01 +2.6570704743854440e+03 -5.5204567332377541e+04 -1.6877699463664185e+07 
+2.9499999999999975e+00 -5.5280189026532145e-01 +7.2677271865163426e+00 +4.9907081872095951e+00 -4.0843732444385765e+01 +2.5050407162193624e+03 -5.2684916545110740e+04 -1.6034695917424811e+07 
+2.9999999999999973e+00 -5.5282135079069850e-01 +7.2687536754600410e+00 +4.9753769379081243e+00 -4.0881827168253231e+01 +2.3562659773178298e+03 -5.0094692998568993e+04 -1.5208768369987737e+07 
+3.0499999999999972e+00 -5.5284111725649765e-01 +7.2697961800675044e+00 +4.9595511901977982e+00 -4.0929318833372655e+01 +2.2110002160923418e+03 -4.7439094446823467e+04 -1.4401478343799273e+07 
+3.0999999999999970e+00 -5.5286118773543969e-01 +7.2708545847601398e+00 +4.9432261126873414e+00 -4.0986003871404478e+01 +2.0694973122936171e+03 -4.4723316040604797e+04 -1.3614386802333171e+07 
+3.1499999999999968e+00 -5.5288156030024294e-01 +7.2719287739579173e+00 +4.9263968714968067e+00 -4.1051678636387507e+01 +1.9320112170275681e+03 -4.1952553632159346e+04 -1.2849055199976992e+07 
+3.1999999999999966e+00 -5.5290223302364672e-01 +7.2730186320815084e+00 +4.9090586345638814e+00 -4.1126139507596889e+01 +1.7987958339252523e+03 -3.9132002860026907e+04 -1.2107044671363696e+07 
+3.2499999999999964e+00 -5.5292320397839156e-01 +7.2741240435546821e+00 +4.8912065684647477e+00 -4.1209182989571893e+01 +1.6701051054890365e+03 -3.6266858341826264e+04 -1.1389916617717206e+07 
+3.2999999999999963e+00 -5.5294447123723500e-01 +7.2752448927974225e+00 +4.8728358412418693e+00 -4.1300605436271219e+01 +1.5461929336567396e+03 -3.3362315896690110e+04 -1.0699232155217802e+07 
+3.3499999999999961e+00 -5.5296603287293433e-01 +7.2763810642364337e+00 +4.8539416187358482e+00 -4.1400203457387263e+01 +1.4273132843439430e+03 -3.0423569323891239e+04 -1.0036552842315283e+07 
+3.3999999999999959e+00 -5.5298788695826617e-01 +7.2775324422948851e+00 +4.8345190692842088e+00 -4.1507773537182921e+01 +1.3137200539289915e+03 -2.7455813375750531e+04 -9.4034397560166679e+06 
+3.4499999999999957e+00 -5.5301003156600181e-01 +7.2786989113991876e+00 +4.8145633581787104e+00 -4.1623112271206864e+01 +1.2056672255636156e+03 -2.4464241966446752e+04 -8.8014545691712853e+06 
+3.4999999999999956e+00 -5.5303246476893031e-01 +7.2798803559748926e+00 +4.7940696523414150e+00 -4.1746016238695255e+01 +1.1034087383738261e+03 -2.1454049080340541e+04 -8.2321586491213739e+06 
+3.5499999999999954e+00 -5.5305518463984549e-01 +7.2810766604504202e+00 +4.7730331180534060e+00 -4.1876282124057113e+01 +1.0071985516483716e+03 -1.8430427891727599e+04 -7.6971135045656208e+06 
+3.5999999999999952e+00 -5.5307818925156216e-01 +7.2822877092538096e+00 +4.7514489239732134e+00 -4.2013706604555644e+01 +9.1729055862799112e+02 -1.5398571601725167e+04 -7.1978801843995759e+06 
+3.6499999999999950e+00 -5.5310147667688359e-01 +7.2835133868141577e+00 +4.7293122349732792e+00 -4.2158086395928159e+01 +8.3393876051612699e+02 -1.2363673134574748e+04 -6.7360204803610463e+06 
+3.6999999999999948e+00 -5.5312504498862469e-01 +7.2847535775613403e+00 +4.7066182163522772e+00 -4.2309218262235632e+01 +7.5739714800981699e+02 -9.3309249506617562e+03 -6.3130961091960380e+06 
+3.7499999999999947e+00 -5.5314889225962327e-01 +7.2860081659282008e+00 +4.6833620365326478e+00 -4.2466899070812026e+01 +6.8791962665704818e+02 -6.3055187665085532e+03 -5.9306682024410022e+06 
+3.7999999999999945e+00 -5.5317301656269979e-01 +7.2872770363436130e+00 +4.6595388590838800e+00 -4.2630925545405894e+01 +6.2576023495940422e+02 -3.2926474112457481e+03 -5.5902987875168482e+06 
+3.8499999999999943e+00 -5.5319741597070826e-01 +7.2885600732454128e+00 +4.6351438521088735e+00 -4.2801094784458307e+01 +5.7117289540386389e+02 -2.9750062182849058e+02 -5.2935491265536193e+06 
+3.8999999999999941e+00 -5.5322208855648836e-01 +7.2898571610618017e+00 +4.6101721798449118e+00 -4.2977203486560143e+01 +5.2441163144425536e+02 +2.6747285266252975e+03 -5.0419811393743986e+06 
+3.9499999999999940e+00 -5.5324703239290107e-01 +7.2911681842317488e+00 +4.5846190091557428e+00 -4.3159048799743736e+01 +4.8573040063593135e+02 +5.6188506629068934e+03 -4.8371563150014831e+06 
+3.9999999999999938e+00 -5.5327224555280385e-01 +7.2924930271891748e+00 +4.5584795048875142e+00 -4.3346427674989229e+01 +4.5538321301666582e+02 +8.5296748365097537e+03 -4.6806364733920535e+06 
+4.0499999999999936e+00 -5.5329772599380478e-01 +7.2938315567944496e+00 +4.5317524898777286e+00 -4.3539094038149578e+01 +4.3353147328838014e+02 +1.1402782984040110e+04 -4.5734103808998680e+06 
+4.0999999999999934e+00 -5.5332347121340142e-01 +7.2951835606978932e+00 +4.5044525959720758e+00 -4.3736589240110057e+01 +4.1995825710809152e+02 +1.4236697639779513e+04 -4.5141768339836709e+06 
+4.1499999999999932e+00 -5.5334947859431005e-01 +7.2965488045211631e+00 +4.4765987344333800e+00 -4.3938395441782312e+01 +4.1434987211697393e+02 +1.7030666312676571e+04 -4.5010617120183595e+06 
+4.1999999999999931e+00 -5.5337574551925994e-01 +7.2979270538843952e+00 +4.4482098185965881e+00 -4.4143994748770496e+01 +4.1639257232035084e+02 +1.9783935954789784e+04 -4.5321905333830528e+06 
+4.2499999999999929e+00 -5.5340226937098103e-01 +7.2993180744071857e+00 +4.4193047622244004e+00 -4.4352869264537595e+01 +4.2577259266075436e+02 +2.2495753551308262e+04 -4.6056886608453915e+06 
+4.2999999999999927e+00 -5.5342904753219224e-01 +7.3007216317144330e+00 +4.3899024765393806e+00 -4.4564501303738695e+01 +4.4217624011601060e+02 +2.5165367783282178e+04 -4.7196819600064605e+06 
+4.3499999999999925e+00 -5.5345607738561509e-01 +7.3021374914221218e+00 +4.3600218733896936e+00 -4.4778372815492872e+01 +4.6528980062576989e+02 +2.7792024287084474e+04 -4.8722961413907465e+06 
+4.3999999999999924e+00 -5.5348335631400036e-01 +7.3035654191501447e+00 +4.3296818697387600e+00 -4.4993965937570692e+01 +4.9479942287198202e+02 +3.0374970343868292e+04 -5.0616559937774343e+06 
+4.4499999999999922e+00 -5.5351088170004059e-01 +7.3050051805163356e+00 +4.2989013725101266e+00 -4.5210762709989922e+01 +5.3039152055948159e+02 +3.2913452338972835e+04 -5.2858880770439217e+06 
+4.4999999999999920e+00 -5.5353865092647903e-01 +7.3064565411367299e+00 +4.2676992973389556e+00 -4.5428245112108478e+01 +5.7175227438353966e+02 +3.5406716183256227e+04 -5.5431173873829730e+06 
+4.5499999999999918e+00 -5.5356666137603272e-01 +7.3079192666298418e+00 +4.2360945559757699e+00 -4.5645895244384270e+01 +6.1856796549283308e+02 +3.7854008826761550e+04 -5.8314695889935158e+06 
+4.5999999999999917e+00 -5.5359491043142939e-01 +7.3093931226100350e+00 +4.2041060615089423e+00 -4.5863195022673509e+01 +6.7052483905997678e+02 +4.0254575603673395e+04 -6.1490701020583529e+06 
+4.6499999999999915e+00 -5.5362339547537764e-01 +7.3108778746921468e+00 +4.1717527248741844e+00 -4.6079626419141924e+01 +7.2730919259452560e+02 +4.2607662417065818e+04 -6.4940446860426124e+06 
+4.6999999999999913e+00 -5.5365211389060331e-01 +7.3123732884877803e+00 +4.1390534597571778e+00 -4.6294671255709567e+01 +7.8860725089962875e+02 +4.4912513830253374e+04 -6.8645186183845000e+06 
+4.7499999999999911e+00 -5.5368106305982012e-01 +7.3138791296124870e+00 +4.1060271781918001e+00 -4.6507811548037012e+01 +8.5410527981753671e+02 +4.7168376077360845e+04 -7.2586174409189038e+06 
+4.7999999999999909e+00 -5.5371024036572836e-01 +7.3153951636739665e+00 +4.0726927905305415e+00 -4.6718528982700676e+01 +9.2348958708812063e+02 +4.9374492609005567e+04 -7.6744669724963959e+06 
+4.8499999999999908e+00 -5.5373964319105196e-01 +7.3169211562858480e+00 +4.0390692116062379e+00 -4.6926305525795037e+01 +9.9644635982780301e+02 +5.1530109282796773e+04 -8.1101922215720909e+06 
+4.8999999999999906e+00 -5.5376926891848344e-01 +7.3184568730550321e+00 +4.0051753513183979e+00 -4.7130622850800535e+01 +1.0726619139576353e+03 +5.3634469427402408e+04 -8.5639190536513440e+06 
+4.9499999999999904e+00 -5.5379911493073208e-01 +7.3200020795893854e+00 +3.9710301234175813e+00 -4.7330962700725486e+01 +1.1518224578647178e+03 +5.5686817011833307e+04 -9.0337725994264279e+06 
+4.9999999999999902e+00 -5.5382917861049330e-01 +7.3215565414961352e+00 +3.9366524394325526e+00 -4.7526806797453318e+01 +1.2336142608093223e+03 +5.7686395795493467e+04 -9.5178784078773744e+06 
+5.0499999999999901e+00 -5.5385945734044406e-01 +7.3231200243815504e+00 +3.9020612088294198e+00 -4.7717636844611107e+01 +1.3177236417016895e+03 +5.9632449419616212e+04 -1.0014362346577467e+07 
