# field on trajectory
# s[mm] rx[mm] ry[mm] rz[mm] bx[T] by[T] bz[T]
0.0000000000000000e+00 +8.5389999999999997e+00 +0.0000000000000000e+00 +0.0000000000000000e+00 -2.7261053454116963e-02 -5.2240969034314333e-01 +5.1519614337686929e-03
-5.0000000000000003e-02 +8.5389999311313716e+00 +0.0000000000000000e+00 -4.9999999999936762e-02 -2.7261114951705138e-02 -5.2240995393659762e-01 +5.1528715999467761e-03
-1.0000000000000001e-01 +8.5389997245254232e+00 +0.0000000000000000e+00 -9.9999999999494091e-02 -2.7261201189513650e-02 -5.2241059960795178e-01 +5.1537829776873972e-03
-1.5000000000000002e-01 +8.5389993801819841e+00 +0.0000000000000000e+00 -1.4999999999829255e-01 -2.7261312103056601e-02 -5.2241162686078624e-01 +5.1546954929240557e-03
-2.0000000000000001e-01 +8.5389988981007843e+00 +0.0000000000000000e+00 -1.9999999999595272e-01 -2.7261447627848986e-02 -5.2241303519869942e-01 +5.1556090715903077e-03
-2.5000000000000000e-01 +8.5389982782814506e+00 +0.0000000000000000e+00 -2.4999999999209516e-01 -2.7261607699406592e-02 -5.2241482412530826e-01 +5.1565236396197362e-03
-2.9999999999999999e-01 +8.5389975207235125e+00 +0.0000000000000000e+00 -2.9999999998634042e-01 -2.7261792253246053e-02 -5.2241699314424783e-01 +5.1574391229459483e-03
-3.4999999999999998e-01 +8.5389966254263996e+00 +0.0000000000000000e+00 -3.4999999997830905e-01 -2.7262001224884844e-02 -5.2241954175917193e-01 +5.1583554475025445e-03
-3.9999999999999997e-01 +8.5389955923894387e+00 +0.0000000000000000e+00 -3.9999999996762159e-01 -2.7262234549841217e-02 -5.2242246947375137e-01 +5.1592725392230979e-03
-4.4999999999999996e-01 +8.5389944216118572e+00 +0.0000000000000000e+00 -4.4999999995389861e-01 -2.7262492163634227e-02 -5.2242577579167504e-01 +5.1601903240411353e-03
-4.9999999999999994e-01 +8.5389931130927845e+00 +0.0000000000000000e+00 -4.9999999993676059e-01 -2.7262774001783747e-02 -5.2242946021665015e-01 +5.1611087278901320e-03
-5.4999999999999993e-01 +8.5389916668312473e+00 +0.0000000000000000e+00 -5.4999999991582804e-01 -2.7263079999810376e-02 -5.2243352225240047e-01 +5.1620276767034602e-03
-5.9999999999999998e-01 +8.5389900828261762e+00 +0.0000000000000000e+00 -5.9999999989072150e-01 -2.7263410093235484e-02 -5.2243796140266752e-01 +5.1629470964144018e-03
-6.5000000000000002e-01 +8.5389883610764006e+00 +0.0000000000000000e+00 -6.4999999986106149e-01 -2.7263764217581199e-02 -5.2244277717121024e-01 +5.1638669129561131e-03
-7.0000000000000007e-01 +8.5389865015806521e+00 +0.0000000000000000e+00 -6.9999999982646843e-01 -2.7264142308370418e-02 -5.2244796906180491e-01 +5.1647870522615966e-03
-7.5000000000000011e-01 +8.5389845043375594e+00 +0.0000000000000000e+00 -7.4999999978656284e-01 -2.7264544301126695e-02 -5.2245353657824356e-01 +5.1657074402637051e-03
-8.0000000000000016e-01 +8.5389823693456570e+00 +0.0000000000000000e+00 -7.9999999974096514e-01 -2.7264970131374348e-02 -5.2245947922433611e-01 +5.1666280028950943e-03
-8.5000000000000020e-01 +8.5389800966033764e+00 +0.0000000000000000e+00 -8.4999999968929574e-01 -2.7265419734638408e-02 -5.2246579650390923e-01 +5.1675486660882281e-03
-9.0000000000000024e-01 +8.5389776861090532e+00 +0.0000000000000000e+00 -8.9999999963117516e-01 -2.7265893046444552e-02 -5.2247248792080492e-01 +5.1684693557753382e-03
-9.5000000000000029e-01 +8.5389751378609215e+00 +0.0000000000000000e+00 -9.4999999956622372e-01 -2.7266390002319171e-02 -5.2247955297888327e-01 +5.1693899978884159e-03
-1.0000000000000002e+00 +8.5389724518571199e+00 +0.0000000000000000e+00 -9.9999999949406171e-01 -2.7266910537789311e-02 -5.2248699118201880e-01 +5.1703105183591872e-03
-1.0500000000000003e+00 +8.5389696280956873e+00 +0.0000000000000000e+00 -1.0499999994143097e+00 -2.7267454588382693e-02 -5.2249480203410315e-01 +5.1712308431190977e-03
-1.1000000000000003e+00 +8.5389666665745647e+00 +0.0000000000000000e+00 -1.0999999993265879e+00 -2.7268022089627648e-02 -5.2250298503904424e-01 +5.1721508980992863e-03
-1.1500000000000004e+00 +8.5389635672915940e+00 +0.0000000000000000e+00 -1.1499999992305165e+00 -2.7268612977053193e-02 -5.2251153970076480e-01 +5.1730706092305741e-03
-1.2000000000000004e+00 +8.5389603302445192e+00 +0.0000000000000000e+00 -1.1999999991257160e+00 -2.7269227186188908e-02 -5.2252046552320397e-01 +5.1739899024434337e-03
-1.2500000000000004e+00 +8.5389569554309865e+00 +0.0000000000000000e+00 -1.2499999990118065e+00 -2.7269864652565031e-02 -5.2252976201031565e-01 +5.1749087036679735e-03
-1.3000000000000005e+00 +8.5389534428485465e+00 +0.0000000000000000e+00 -1.2999999988884083e+00 -2.7270525311712361e-02 -5.2253942866606995e-01 +5.1758269388339235e-03
-1.3500000000000005e+00 +8.5389497924946500e+00 +0.0000000000000000e+00 -1.3499999987551417e+00 -2.7271209099162329e-02 -5.2254946499445198e-01 +5.1767445338706140e-03
-1.4000000000000006e+00 +8.5389460043666503e+00 +0.0000000000000000e+00 -1.3999999986116267e+00 -2.7271915950446909e-02 -5.2255987049946129e-01 +5.1776614147069390e-03
-1.4500000000000006e+00 +8.5389420784618046e+00 +0.0000000000000000e+00 -1.4499999984574836e+00 -2.7272645801098640e-02 -5.2257064468511349e-01 +5.1785775072713640e-03
-1.5000000000000007e+00 +8.5389380147772727e+00 +0.0000000000000000e+00 -1.4999999982923324e+00 -2.7273398586650642e-02 -5.2258178705543779e-01 +5.1794927374918861e-03
-1.5500000000000007e+00 +8.5389338133101162e+00 +0.0000000000000000e+00 -1.5499999981157933e+00 -2.7274174242636517e-02 -5.2259329711447922e-01 +5.1804070312960141e-03
-1.6000000000000008e+00 +8.5389294740572996e+00 +0.0000000000000000e+00 -1.5999999979274864e+00 -2.7274972704590485e-02 -5.2260517436629617e-01 +5.1813203146107651e-03
-1.6500000000000008e+00 +8.5389249970156929e+00 +0.0000000000000000e+00 -1.6499999977270317e+00 -2.7275793908047199e-02 -5.2261741831496245e-01 +5.1822325133626260e-03
-1.7000000000000008e+00 +8.5389203821820665e+00 +0.0000000000000000e+00 -1.6999999975140490e+00 -2.7276637788541884e-02 -5.2263002846456552e-01 +5.1831435534775419e-03
-1.7500000000000009e+00 +8.5389156295530970e+00 +0.0000000000000000e+00 -1.7499999972881584e+00 -2.7277504281610205e-02 -5.2264300431920674e-01 +5.1840533608809016e-03
-1.8000000000000009e+00 +8.5389107391253631e+00 +0.0000000000000000e+00 -1.7999999970489797e+00 -2.7278393322788363e-02 -5.2265634538300221e-01 +5.1849618614975045e-03
-1.8500000000000010e+00 +8.5389057108953477e+00 +0.0000000000000000e+00 -1.8499999967961329e+00 -2.7279304847612994e-02 -5.2267005116008114e-01 +5.1858689812515520e-03
-1.9000000000000010e+00 +8.5389005448594357e+00 +0.0000000000000000e+00 -1.8999999965292378e+00 -2.7280238791621208e-02 -5.2268412115458651e-01 +5.1867746460666194e-03
-1.9500000000000011e+00 +8.5388952410139183e+00 +0.0000000000000000e+00 -1.9499999962479142e+00 -2.7281195090350562e-02 -5.2269855487067507e-01 +5.1876787818656445e-03
-2.0000000000000009e+00 +8.5388897993549904e+00 +0.0000000000000000e+00 -1.9999999959517818e+00 -2.7282173679339054e-02 -5.2271335181251655e-01 +5.1885813145709017e-03
-2.0500000000000007e+00 +8.5388842198787511e+00 +0.0000000000000000e+00 -2.0499999956404604e+00 -2.7283174467694484e-02 -5.2272851120499608e-01 +5.1894821735610176e-03
-2.1000000000000005e+00 +8.5388785025812020e+00 +0.0000000000000000e+00 -2.0999999953135697e+00 -2.7284197258802861e-02 -5.2274403115581902e-01 +5.1903813020422315e-03
-2.1500000000000004e+00 +8.5388726474582519e+00 +0.0000000000000000e+00 -2.1499999949707291e+00 -2.7285241829620534e-02 -5.2275990949340423e-01 +5.1912786466775402e-03
-2.2000000000000002e+00 +8.5388666545057159e+00 +0.0000000000000000e+00 -2.1999999946115585e+00 -2.7286307957104999e-02 -5.2277614404618289e-01 +5.1921741541296933e-03
-2.2500000000000000e+00 +8.5388605237193111e+00 +0.0000000000000000e+00 -2.2499999942356772e+00 -2.7287395418214882e-02 -5.2279273264259862e-01 +5.1930677710612123e-03
-2.2999999999999998e+00 +8.5388542550946660e+00 +0.0000000000000000e+00 -2.2999999938427047e+00 -2.7288503989909972e-02 -5.2280967311110649e-01 +5.1939594441343974e-03
-2.3499999999999996e+00 +8.5388478486273129e+00 +0.0000000000000000e+00 -2.3499999934322604e+00 -2.7289633449151248e-02 -5.2282696328017397e-01 +5.1948491200113260e-03
-2.3999999999999995e+00 +8.5388413043126938e+00 +0.0000000000000000e+00 -2.3999999930039642e+00 -2.7290783572900906e-02 -5.2284460097827934e-01 +5.1957367453538796e-03
-2.4499999999999993e+00 +8.5388346221461582e+00 +0.0000000000000000e+00 -2.4499999925574349e+00 -2.7291954138122389e-02 -5.2286258403391217e-01 +5.1966222668237269e-03
-2.4999999999999991e+00 +8.5388278021229667e+00 +0.0000000000000000e+00 -2.4999999920922917e+00 -2.7293144921780414e-02 -5.2288091027557371e-01 +5.1975056310823442e-03
-2.5499999999999989e+00 +8.5388208442382858e+00 +0.0000000000000000e+00 -2.5499999916081544e+00 -2.7294355700841006e-02 -5.2289957753177596e-01 +5.1983867847910353e-03
-2.5999999999999988e+00 +8.5388137484871933e+00 +0.0000000000000000e+00 -2.5999999911046419e+00 -2.7295586252271537e-02 -5.2291858363104160e-01 +5.1992656746109173e-03
-2.6499999999999986e+00 +8.5388065148646781e+00 +0.0000000000000000e+00 -2.6499999905813731e+00 -2.7296836353040716e-02 -5.2293792640190440e-01 +5.2001422472029435e-03
-2.6999999999999984e+00 +8.5387991433656421e+00 +0.0000000000000000e+00 -2.6999999900379672e+00 -2.7298105780118639e-02 -5.2295760367290778e-01 +5.2010164492279033e-03
-2.7499999999999982e+00 +8.5387916339848964e+00 +0.0000000000000000e+00 -2.7499999894740434e+00 -2.7299394310476850e-02 -5.2297761327260617e-01 +5.2018882273464351e-03
-2.7999999999999980e+00 +8.5387839867171653e+00 +0.0000000000000000e+00 -2.7999999888892204e+00 -2.7300701721088283e-02 -5.2299795302956364e-01 +5.2027575282190350e-03
-2.8499999999999979e+00 +8.5387762015570861e+00 +0.0000000000000000e+00 -2.8499999882831175e+00 -2.7302027788927409e-02 -5.2301862077235484e-01 +5.2036242985060597e-03
-2.8999999999999977e+00 +8.5387682784992105e+00 +0.0000000000000000e+00 -2.8999999876553533e+00 -2.7303372290970143e-02 -5.2303961432956347e-01 +5.2044884848677364e-03
-2.9499999999999975e+00 +8.5387602175380035e+00 +0.0000000000000000e+00 -2.9499999870055467e+00 -2.7304735004193979e-02 -5.2306093152978295e-01 +5.2053500339641710e-03
-2.9999999999999973e+00 +8.5387520186678447e+00 +0.0000000000000000e+00 -2.9999999863333162e+00 -2.7306115705577921e-02 -5.2308257020161619e-01 +5.2062088924553600e-03
-3.0499999999999972e+00 +8.5387436818830285e+00 +0.0000000000000000e+00 -3.0499999856382805e+00 -2.7307514172102587e-02 -5.2310452817367525e-01 +5.2070650070011916e-03
-3.0999999999999970e+00 +8.5387352071777656e+00 +0.0000000000000000e+00 -3.0999999849200583e+00 -2.7308930180750188e-02 -5.2312680327458128e-01 +5.2079183242614560e-03
-3.1499999999999968e+00 +8.5387265945461834e+00 +0.0000000000000000e+00 -3.1499999841782684e+00 -2.7310363508504625e-02 -5.2314939333296473e-01 +5.2087687908958565e-03
-3.1999999999999966e+00 +8.5387178439823259e+00 +0.0000000000000000e+00 -3.1999999834125288e+00 -2.7311813932351402e-02 -5.2317229617746386e-01 +5.2096163535640151e-03
-3.2499999999999964e+00 +8.5387089554801534e+00 +0.0000000000000000e+00 -3.2499999826224584e+00 -2.7313281229277762e-02 -5.2319550963672612e-01 +5.2104609589254808e-03
-3.2999999999999963e+00 +8.5386999290335464e+00 +0.0000000000000000e+00 -3.2999999818076753e+00 -2.7314765176272651e-02 -5.2321903153940696e-01 +5.2113025536397340e-03
-3.3499999999999961e+00 +8.5386907646363053e+00 +0.0000000000000000e+00 -3.3499999809677976e+00 -2.7316265550326790e-02 -5.2324285971416973e-01 +5.2121410843661989e-03
-3.3999999999999959e+00 +8.5386814622821454e+00 +0.0000000000000000e+00 -3.3999999801024439e+00 -2.7317782128432683e-02 -5.2326699198968674e-01 +5.2129764977642519e-03
-3.4499999999999957e+00 +8.5386720219647056e+00 +0.0000000000000000e+00 -3.4499999792112321e+00 -2.7319314687584619e-02 -5.2329142619463709e-01 +5.2138087404932252e-03
-3.4999999999999956e+00 +8.5386624436775431e+00 +0.0000000000000000e+00 -3.4999999782937805e+00 -2.7320863004778755e-02 -5.2331616015770810e-01 +5.2146377592124180e-03
-3.5499999999999954e+00 +8.5386527274141351e+00 +0.0000000000000000e+00 -3.5499999773497071e+00 -2.7322426857013082e-02 -5.2334119170759386e-01 +5.2154635005811018e-03
-3.5999999999999952e+00 +8.5386428731678841e+00 +0.0000000000000000e+00 -3.5999999763786295e+00 -2.7324006021287515e-02 -5.2336651867299655e-01 +5.2162859112585358e-03
-3.6499999999999950e+00 +8.5386328809321128e+00 +0.0000000000000000e+00 -3.6499999753801657e+00 -2.7325600274603890e-02 -5.2339213888262515e-01 +5.2171049379039647e-03
-3.6999999999999948e+00 +8.5386227507000658e+00 +0.0000000000000000e+00 -3.6999999743539340e+00 -2.7327209393965969e-02 -5.2341805016519494e-01 +5.2179205271766314e-03
-3.7499999999999947e+00 +8.5386124824649112e+00 +0.0000000000000000e+00 -3.7499999732995515e+00 -2.7328833156379510e-02 -5.2344425034942887e-01 +5.2187326257357829e-03
-3.7999999999999945e+00 +8.5386020762197408e+00 +0.0000000000000000e+00 -3.7999999722166362e+00 -2.7330471338852289e-02 -5.2347073726405602e-01 +5.2195411802406838e-03
-3.8499999999999943e+00 +8.5385915319575716e+00 +0.0000000000000000e+00 -3.8499999711048059e+00 -2.7332123718394108e-02 -5.2349750873781198e-01 +5.2203461373506186e-03
-3.8999999999999941e+00 +8.5385808496713462e+00 +0.0000000000000000e+00 -3.8999999699636776e+00 -2.7333790072016816e-02 -5.2352456259943825e-01 +5.2211474437249012e-03
-3.9499999999999940e+00 +8.5385700293539308e+00 +0.0000000000000000e+00 -3.9499999687928691e+00 -2.7335470176734381e-02 -5.2355189667768243e-01 +5.2219450460228838e-03
-3.9999999999999938e+00 +8.5385590709981187e+00 +0.0000000000000000e+00 -3.9999999675919975e+00 -2.7337163809562873e-02 -5.2357950880129822e-01 +5.2227388909039611e-03
-4.0499999999999936e+00 +8.5385479745966304e+00 +0.0000000000000000e+00 -4.0499999663606800e+00 -2.7338870758392361e-02 -5.2360739670164269e-01 +5.2235289376584160e-03
-4.0999999999999934e+00 +8.5385367401421117e+00 +0.0000000000000000e+00 -4.0999999650985348e+00 -2.7340590854601426e-02 -5.2363555772046788e-01 +5.2243151960999004e-03
-4.1499999999999932e+00 +8.5385253676271393e+00 +0.0000000000000000e+00 -4.1499999638051781e+00 -2.7342323940439762e-02 -5.2366398910212797e-01 +5.2250976886727271e-03
-4.1999999999999931e+00 +8.5385138570442169e+00 +0.0000000000000000e+00 -4.1999999624802271e+00 -2.7344069858155913e-02 -5.2369268809098113e-01 +5.2258764378209522e-03
-4.2499999999999929e+00 +8.5385022083857791e+00 +0.0000000000000000e+00 -4.2499999611232990e+00 -2.7345828449997261e-02 -5.2372165193139020e-01 +5.2266514659883656e-03
-4.2999999999999927e+00 +8.5384904216441875e+00 +0.0000000000000000e+00 -4.2999999597340102e+00 -2.7347599558209864e-02 -5.2375087786772112e-01 +5.2274227956185101e-03
-4.3499999999999925e+00 +8.5384784968117380e+00 +0.0000000000000000e+00 -4.3499999583119777e+00 -2.7349383025038494e-02 -5.2378036314434451e-01 +5.2281904491546629e-03
-4.3999999999999924e+00 +8.5384664338806555e+00 +0.0000000000000000e+00 -4.3999999568568189e+00 -2.7351178692726488e-02 -5.2381010500563352e-01 +5.2289544490398401e-03
-4.4499999999999922e+00 +8.5384542328430992e+00 +0.0000000000000000e+00 -4.4499999553681500e+00 -2.7352986403515703e-02 -5.2384010069596576e-01 +5.2297148177167943e-03
-4.4999999999999920e+00 +8.5384418936911608e+00 +0.0000000000000000e+00 -4.4999999538455873e+00 -2.7354805999646459e-02 -5.2387034745972028e-01 +5.2304715776280014e-03
-4.5499999999999918e+00 +8.5384294164168661e+00 +0.0000000000000000e+00 -4.5499999522887480e+00 -2.7356637323357431e-02 -5.2390084254128089e-01 +5.2312247512156899e-03
-4.5999999999999917e+00 +8.5384168010121755e+00 +0.0000000000000000e+00 -4.5999999506972475e+00 -2.7358480216885625e-02 -5.2393158318503297e-01 +5.2319743609217989e-03
-4.6499999999999915e+00 +8.5384040474689833e+00 +0.0000000000000000e+00 -4.6499999490707031e+00 -2.7360334522466279e-02 -5.2396256663536411e-01 +5.2327204291880060e-03
-4.6999999999999913e+00 +8.5383911557791201e+00 +0.0000000000000000e+00 -4.6999999474087302e+00 -2.7362200082332769e-02 -5.2399379013666558e-01 +5.2334629784557144e-03
-4.7499999999999911e+00 +8.5383781259343543e+00 +0.0000000000000000e+00 -4.7499999457109459e+00 -2.7364076738716610e-02 -5.2402525093332919e-01 +5.2342020311660466e-03
-4.7999999999999909e+00 +8.5383649579263903e+00 +0.0000000000000000e+00 -4.7999999439769656e+00 -2.7365964333847300e-02 -5.2405694626974975e-01 +5.2349376097598523e-03
-4.8499999999999908e+00 +8.5383516517468721e+00 +0.0000000000000000e+00 -4.8499999422064057e+00 -2.7367862709952329e-02 -5.2408887339032306e-01 +5.2356697366777033e-03
-4.8999999999999906e+00 +8.5383382073873832e+00 +0.0000000000000000e+00 -4.8999999403988816e+00 -2.7369771709257026e-02 -5.2412102953944639e-01 +5.2363984343598820e-03
-4.9499999999999904e+00 +8.5383246248394435e+00 +0.0000000000000000e+00 -4.9499999385540097e+00 -2.7371691173984570e-02 -5.2415341196151910e-01 +5.2371237252463948e-03
-4.9999999999999902e+00 +8.5383109040945175e+00 +0.0000000000000000e+00 -4.9999999366714052e+00 -2.7373620946355842e-02 -5.2418601790094055e-01 +5.2378456317769603e-03
-5.0499999999999901e+00 +8.5382970451440077e+00 +0.0000000000000000e+00 -5.0499999347506845e+00 -2.7375560868589437e-02 -5.2421884460211199e-01 +5.2385641763910123e-03
-5.0999999999999899e+00 +8.5382830479792577e+00 +0.0000000000000000e+00 -5.0999999327914622e+00 -2.7377510782901533e-02 -5.2425188930943434e-01 +5.2392793815276987e-03
-5.1499999999999897e+00 +8.5382689125915565e+00 +0.0000000000000000e+00 -5.1499999307933546e+00 -2.7379470531505801e-02 -5.2428514926730962e-01 +5.2399912696258670e-03
-5.1999999999999895e+00 +8.5382546389721359e+00 +0.0000000000000000e+00 -5.1999999287559762e+00 -2.7381439956613410e-02 -5.2431862172013988e-01 +5.2406998631240789e-03
-5.2499999999999893e+00 +8.5382402271121691e+00 +0.0000000000000000e+00 -5.2499999266789432e+00 -2.7383418900432922e-02 -5.2435230391232779e-01 +5.2414051844606024e-03
-5.2999999999999892e+00 +8.5382256770027762e+00 +0.0000000000000000e+00 -5.2999999245618703e+00 -2.7385407205170170e-02 -5.2438619308827461e-01 +5.2421072560734049e-03
-5.3499999999999890e+00 +8.5382109886350239e+00 +0.0000000000000000e+00 -5.3499999224043728e+00 -2.7387404713028252e-02 -5.2442028649238259e-01 +5.2428061004001552e-03
-5.3999999999999888e+00 +8.5381961619999220e+00 +0.0000000000000000e+00 -5.3999999202060653e+00 -2.7389411266207454e-02 -5.2445458136905254e-01 +5.2435017398782318e-03
-5.4499999999999886e+00 +8.5381811970884272e+00 +0.0000000000000000e+00 -5.4499999179665632e+00 -2.7391426706905152e-02 -5.2448907496268504e-01 +5.2441941969446982e-03
-5.4999999999999885e+00 +8.5381660938914479e+00 +0.0000000000000000e+00 -5.4999999156854820e+00 -2.7393450877315758e-02 -5.2452376451767946e-01 +5.2448834940363219e-03
-5.5499999999999883e+00 +8.5381508523998360e+00 +0.0000000000000000e+00 -5.5499999133624351e+00 -2.7395483619630630e-02 -5.2455864727843404e-01 +5.2455696535895604e-03
-5.5999999999999881e+00 +8.5381354726043952e+00 +0.0000000000000000e+00 -5.5999999109970382e+00 -2.7397524776038035e-02 -5.2459372048934572e-01 +5.2462526980405670e-03
-5.6499999999999879e+00 +8.5381199544958797e+00 +0.0000000000000000e+00 -5.6499999085889057e+00 -2.7399574188723061e-02 -5.2462898139480962e-01 +5.2469326498251817e-03
-5.6999999999999877e+00 +8.5381042980649902e+00 +0.0000000000000000e+00 -5.6999999061376512e+00 -2.7401631699867503e-02 -5.2466442723921924e-01 +5.2476095313789333e-03
-5.7499999999999876e+00 +8.5380885033023830e+00 +0.0000000000000000e+00 -5.7499999036428902e+00 -2.7403697151649895e-02 -5.2470005526696650e-01 +5.2482833651370442e-03
-5.7999999999999874e+00 +8.5380725701986648e+00 +0.0000000000000000e+00 -5.7999999011042362e+00 -2.7405770386245320e-02 -5.2473586272244022e-01 +5.2489541735344074e-03
-5.8499999999999872e+00 +8.5380564987443943e+00 +0.0000000000000000e+00 -5.8499998985213040e+00 -2.7407851245825416e-02 -5.2477184685002820e-01 +5.2496219790056104e-03
