# multipoles
# s[mm] polynom_b[n=0][T/m^n] polynom_b[n=1][T/m^n] polynom_b[n=2][T/m^n] polynom_b[n=3][T/m^n] polynom_b[n=4][T/m^n] polynom_b[n=5][T/m^n] polynom_b[n=6][T/m^n] 
-0.0000000000000000e+00 -5.5096456341701661e-01 +7.2434744480825008e+00 +6.2743359967725434e+00 +4.6791154736883944e-01 -2.4912236954825752e+04 -4.2525865849949606e+05 +1.4095741727152810e+08 
-5.0000000000000003e-02 -5.5096645001415978e-01 +7.2436178354347671e+00 +6.2684885078348307e+00 +1.0547450785092354e+00 -2.4871625063142186e+04 -4.2941575575688848e+05 +1.4070919950096029e+08 
-1.0000000000000001e-01 -5.5096869664242665e-01 +7.2437798848275179e+00 +6.2621722651574503e+00 +1.6546999485087228e+00 -2.4830720488342089e+04 -4.3358863076564780e+05 +1.4045947016851145e+08 
-1.4999999999999999e-01 -5.5097130228233537e-01 +7.2439605591014082e+00 +6.2553962180726543e+00 +2.2671450501183972e+00 -2.4789631391669864e+04 -4.3777452260865341e+05 +1.4020876829408082e+08 
-2.0000000000000001e-01 -5.5097426591446452e-01 +7.2441598210916096e+00 +6.2481693123600337e+00 +2.8914495436043719e+00 -2.4748465838358632e+04 -4.4197067262773559e+05 +1.3995763224259603e+08 
-2.5000000000000000e-01 -5.5097758651932205e-01 +7.2443776336383419e+00 +6.2405004967439739e+00 +3.5269824135268504e+00 -2.4707331973600481e+04 -4.4617432070398022e+05 +1.3970660092306525e+08 
-2.9999999999999999e-01 -5.5098126307749307e-01 +7.2446139595811001e+00 +6.2323987174426092e+00 +4.1731126939868517e+00 -2.4666337877454713e+04 -4.5038270710491232e+05 +1.3945621280678764e+08 
-3.4999999999999998e-01 -5.5098529456960099e-01 +7.2448687617587586e+00 +6.2238729240109363e+00 +4.8292094806473713e+00 -2.4625591716226354e+04 -4.5459307262508711e+05 +1.3920700693599623e+08 
-4.0000000000000002e-01 -5.5098967997617876e-01 +7.2451420030133713e+00 +6.2149320619434354e+00 +5.4946417692029579e+00 -2.4585201550844071e+04 -4.5880265722700366e+05 +1.3895952165024853e+08 
-4.5000000000000001e-01 -5.5099441827788054e-01 +7.2454336461851261e+00 +6.2055850813560065e+00 +6.1687786513344456e+00 -2.4545275569087444e+04 -4.6300870164814510e+05 +1.3871429615493643e+08 
-5.0000000000000000e-01 -5.5099950845532630e-01 +7.2457436541163416e+00 +6.1958409277940794e+00 +6.8509891651832300e+00 -2.4505921829753497e+04 -4.6720844618910243e+05 +1.3847186876110199e+08 
-5.5000000000000004e-01 -5.5100494948913992e-01 +7.2460719896493782e+00 +6.1857085502650069e+00 +7.5406423781553871e+00 -2.4467248493303287e+04 -4.7139913140220550e+05 +1.3823277849421850e+08 
-5.9999999999999998e-01 -5.5101074036003184e-01 +7.2464186156283610e+00 +6.1751968957551959e+00 +8.2371072961710965e+00 -2.4429363658820726e+04 -4.7557799728129606e+05 +1.3799756393869233e+08 
-6.5000000000000002e-01 -5.5101688004864091e-01 +7.2467834948955039e+00 +6.1643149104636032e+00 +8.9397530512616541e+00 -2.4392375409645410e+04 -4.7974228491687361e+05 +1.3776676358999735e+08 
-6.9999999999999996e-01 -5.5102336753564229e-01 +7.2471665902961613e+00 +6.1530715439092036e+00 +9.6479486544452033e+00 -2.4356391916016426e+04 -4.8388923432466126e+05 +1.3754091652211347e+08 
-7.5000000000000000e-01 -5.5103020180177298e-01 +7.2475678646733499e+00 +6.1414757452184423e+00 +1.0361063252933960e+01 -2.4321521341846834e+04 -4.8801608670715569e+05 +1.3732056177625799e+08 
-8.0000000000000004e-01 -5.5103738182772866e-01 +7.2479872808733932e+00 +6.1295364575232334e+00 +1.1078465867877549e+01 -2.4287871683871592e+04 -4.9212008215033112e+05 +1.3710623724705422e+08 
-8.4999999999999998e-01 -5.5104490659426619e-01 +7.2484248017419706e+00 +6.1172626323856178e+00 +1.1799525579956882e+01 -2.4255551167992948e+04 -4.9619846125479433e+05 +1.3689848237986302e+08 
-9.0000000000000002e-01 -5.5105277508211503e-01 +7.2488803901243335e+00 +6.1046632145552042e+00 +1.2523611510282029e+01 -2.4224667841822138e+04 -5.0024846494188742e+05 +1.3669783543492952e+08 
-9.4999999999999996e-01 -5.5106098627202671e-01 +7.2493540088674173e+00 +6.0917471539762991e+00 +1.3250092736575247e+01 -2.4195329885999778e+04 -5.0426733375803387e+05 +1.3650483554358283e+08 
-1.0000000000000000e+00 -5.5106953914483170e-01 +7.2498456208186823e+00 +6.0785233983461477e+00 +1.3978338334526169e+01 -2.4167645425584869e+04 -5.0825230823808792e+05 +1.3632002148204124e+08 
-1.0500000000000000e+00 -5.5107843268129342e-01 +7.2503551888240647e+00 +6.0650008949830942e+00 +1.4707717461758099e+01 -2.4141722572589813e+04 -5.1220062953973742e+05 +1.3614393192224392e+08 
-1.1000000000000001e+00 -5.5108766586218849e-01 +7.2508826757313489e+00 +6.0511885908613774e+00 +1.5437599236417713e+01 -2.4117669430216596e+04 -5.1610953853179072e+05 +1.3597710548009950e+08 
-1.1499999999999999e+00 -5.5109723766836671e-01 +7.2514280443879606e+00 +6.0370954342625636e+00 +1.6167352792966874e+01 -2.4095594139529014e+04 -5.1997627615241602e+05 +1.3582008103724396e+08 
-1.2000000000000000e+00 -5.5110714708067143e-01 +7.2519912576429082e+00 +6.0227303742238307e+00 +1.6896347242543005e+01 -2.4075604859002942e+04 -5.2379808318731008e+05 +1.3567339757983357e+08 
-1.2500000000000000e+00 -5.5111739307994423e-01 +7.2525722783443891e+00 +6.0081023570942254e+00 +1.7623951727807526e+01 -2.4057809673685304e+04 -5.2757220059193531e+05 +1.3553759359168711e+08 
-1.3000000000000000e+00 -5.5112797464705965e-01 +7.2531710693403753e+00 +5.9932203325646451e+00 +1.8349535442795727e+01 -2.4042316760984286e+04 -5.3129586980170826e+05 +1.3541320819183365e+08 
-1.3500000000000001e+00 -5.5113889076288181e-01 +7.2537875934804692e+00 +5.9780932461497089e+00 +1.9072467522081990e+01 -2.4029234187136830e+04 -5.3496633170844102e+05 +1.3530077975291836e+08 
-1.3999999999999999e+00 -5.5115014040829258e-01 +7.2544218136130674e+00 +5.9627300483644827e+00 +1.9792117171013320e+01 -2.4018670147097513e+04 -5.3858082775612257e+05 +1.3520084749128219e+08 
-1.4500000000000000e+00 -5.5116172256424667e-01 +7.2550736925873718e+00 +5.9471396862299732e+00 +2.0507853582770725e+01 -2.4010732744229685e+04 -5.4213659930775047e+05 +1.3511395001630121e+08 
-1.5000000000000000e+00 -5.5117363621161775e-01 +7.2557431932537675e+00 +5.9313311089331391e+00 +2.1219045918372707e+01 -2.4005530141505689e+04 -5.4563088739557075e+05 +1.3504062634275767e+08 
-1.5500000000000000e+00 -5.5118588033136440e-01 +7.2564302784615808e+00 +5.9153132640815187e+00 +2.1925063405422815e+01 -2.4003170458535591e+04 -5.4906093363136461e+05 +1.3498141519173023e+08 
-1.6000000000000001e+00 -5.5119845390443900e-01 +7.2571349110588503e+00 +5.8990951002936649e+00 +2.2625275333309780e+01 -2.4003761838682349e+04 -5.5242398006206099e+05 +1.3493685543027753e+08 
-1.6499999999999999e+00 -5.5121135591180093e-01 +7.2578570538976779e+00 +5.8826855652845094e+00 +2.3319050844986592e+01 -2.4007412403577026e+04 -5.5571726752309513e+05 +1.3490748578686732e+08 
-1.7000000000000000e+00 -5.5122458533444052e-01 +7.2585966698248869e+00 +5.8660936098593401e+00 +2.4005759327768061e+01 -2.4014230358725668e+04 -5.5893803888602415e+05 +1.3489384556173486e+08 
-1.7500000000000000e+00 -5.5123814115333625e-01 +7.2593537216940760e+00 +5.8493281797392447e+00 +2.4684769885428466e+01 -2.4024323764991750e+04 -5.6208353457489621e+05 +1.3489647304856715e+08 
-1.8000000000000000e+00 -5.5125202234946991e-01 +7.2601281723532267e+00 +5.8323982245458810e+00 +2.5355451888260482e+01 -2.4037800796860090e+04 -5.6515099725906667e+05 +1.3491590733896574e+08 
-1.8500000000000001e+00 -5.5126622790389546e-01 +7.2609199846520882e+00 +5.8153126938680648e+00 +2.6017174637022755e+01 -2.4054769619197676e+04 -5.6813766897003062e+05 +1.3495268743091452e+08 
-1.8999999999999999e+00 -5.5128075679767219e-01 +7.2617291214401822e+00 +5.7980805368622885e+00 +2.6669307456776867e+01 -2.4075338391221449e+04 -5.7104079191284755e+05 +1.3500735230349407e+08 
-1.9500000000000000e+00 -5.5129560801178645e-01 +7.2625555455672322e+00 +5.7807107010249403e+00 +2.7311219696744608e+01 -2.4099615224438690e+04 -5.7385760852491390e+05 +1.3508044060634661e+08 
-2.0000000000000000e+00 -5.5131078052733917e-01 +7.2633992198840387e+00 +5.7632121375560299e+00 +2.7942280644879506e+01 -2.4127708325381976e+04 -5.7658536059574201e+05 +1.3517249160973099e+08 
-2.0499999999999998e+00 -5.5132627312629556e-01 +7.2642600850623520e+00 +5.7455913347007979e+00 +2.8561967410576592e+01 -2.4159680543429353e+04 -5.7922181371929881e+05 +1.3528383523443156e+08 
-2.1000000000000001e+00 -5.5134208379124416e-01 +7.2651379960111937e+00 +5.7278450621416699e+00 +2.9170218793671896e+01 -2.4195416324785230e+04 -5.8176708470169292e+05 +1.3541397791265649e+08 
-2.1499999999999999e+00 -5.5135821030397625e-01 +7.2660327831176268e+00 +5.7099678969757734e+00 +2.9767091388553975e+01 -2.4234755719288187e+04 -5.8422194573805411e+05 +1.3556222063017100e+08 
-2.2000000000000002e+00 -5.5137465044642109e-01 +7.2669442767704080e+00 +5.6919544244053180e+00 +3.0352641727950754e+01 -2.4277538988309283e+04 -5.8658716853704199e+05 +1.3572786577423126e+08 
-2.2500000000000000e+00 -5.5139140200044678e-01 +7.2678723073576297e+00 +5.6737992227795884e+00 +3.0926926394995757e+01 -2.4323606218329533e+04 -5.8886352526203927e+05 +1.3591021458939528e+08 
-2.2999999999999998e+00 -5.5140846274800204e-01 +7.2688167052700186e+00 +5.6554968769707967e+00 +3.1490001868855472e+01 -2.4372797658101015e+04 -5.9105178719391976e+05 +1.3610856936419934e+08 
-2.3500000000000001e+00 -5.5142583047092664e-01 +7.2697773008989097e+00 +5.6370419660678790e+00 +3.2041924633583264e+01 -2.4424953412376904e+04 -5.9315272572235542e+05 +1.3632223146133885e+08 
-2.3999999999999999e+00 -5.5144350295118194e-01 +7.2707539246307658e+00 +5.6184290745047445e+00 +3.2582751380273926e+01 -2.4479913720705372e+04 -5.9516711394534365e+05 +1.3655050311461988e+08 
-2.4500000000000002e+00 -5.5146147797064626e-01 +7.2717464068606601e+00 +5.5996527801368616e+00 +3.3112538462654022e+01 -2.4537518650748825e+04 -5.9709572219484579e+05 +1.3679268542076677e+08 
-2.5000000000000000e+00 -5.5147975331132848e-01 +7.2727545779789917e+00 +5.5807076681886016e+00 +3.3631342440380052e+01 -2.4597608466605117e+04 -5.9893932254468615e+05 +1.3704808079511333e+08 
-2.5499999999999998e+00 -5.5149832675513599e-01 +7.2737782683765335e+00 +5.5615883183592194e+00 +3.4139219873090362e+01 -2.4660023281043228e+04 -6.0069868707613857e+05 +1.3731599061986679e+08 
-2.6000000000000001e+00 -5.5151719608400118e-01 +7.2748173084487355e+00 +5.5422893137029190e+00 +3.4636227140586065e+01 -2.4724603300844345e+04 -6.0237458641391236e+05 +1.3759571692693383e+08 
-2.6499999999999999e+00 -5.5153635907993903e-01 +7.2758715285859434e+00 +5.5228052361925677e+00 +3.5122420853771168e+01 -2.4791188700441162e+04 -6.0396779316393810e+05 +1.3788656151718885e+08 
-2.7000000000000002e+00 -5.5155581352485838e-01 +7.2769407591839004e+00 +5.5031306663566255e+00 +3.5597857412470240e+01 -2.4859619616292715e+04 -6.0547907818993065e+05 +1.3818782594026139e+08 
-2.7500000000000000e+00 -5.5157555720076967e-01 +7.2780248306387696e+00 +5.4832601880292406e+00 +3.6062593197362816e+01 -2.4929736275688618e+04 -6.0690921217908512e+05 +1.3849881236116508e+08 
-2.7999999999999998e+00 -5.5159558788967411e-01 +7.2791235733432149e+00 +5.4631883809417694e+00 +3.6516684769572549e+01 -2.5001378789736918e+04 -6.0825896744939580e+05 +1.3881882214656380e+08 
-2.8500000000000001e+00 -5.5161590337351507e-01 +7.2802368176945587e+00 +5.4429098284201416e+00 +3.6960188497424483e+01 -2.5074387370709723e+04 -6.0952911468488129e+05 +1.3914715735627821e+08 
-2.8999999999999999e+00 -5.5163650143431930e-01 +7.2813643940879214e+00 +5.4224191130847377e+00 +3.7393160864147475e+01 -2.5148602211155739e+04 -6.1072042561459995e+05 +1.3948311991687182e+08 
-2.9500000000000002e+00 -5.5165737985408736e-01 +7.2825061329216201e+00 +5.4017108160286194e+00 +3.7815658220696278e+01 -2.5223863458316075e+04 -6.1183367086357099e+05 +1.3982601143295214e+08 
-3.0000000000000000e+00 -5.5167853641482600e-01 +7.2836618645951123e+00 +5.3807795192345313e+00 +3.8227736888576899e+01 -2.5300011290620481e+04 -6.1286962088123756e+05 +1.4017513374787146e+08 
-3.0499999999999998e+00 -5.5169996889852779e-01 +7.2848314195041803e+00 +5.3596198047065124e+00 +3.8629453356819383e+01 -2.5376885877889854e+04 -6.1382904755303962e+05 +1.4052978861222658e+08 
-3.1000000000000001e+00 -5.5172167508726966e-01 +7.2860146280500144e+00 +5.3382262550577382e+00 +3.9020863897247821e+01 -2.5454327411829345e+04 -6.1471272099992225e+05 +1.4088927794521296e+08 
-3.1499999999999999e+00 -5.5174365276305903e-01 +7.2872113206322391e+00 +5.3165934536495500e+00 +3.9402024867331697e+01 -2.5532176103450565e+04 -6.1552141213364969e+05 +1.4125290379182580e+08 
-3.2000000000000002e+00 -5.5176589970791978e-01 +7.2884213276527303e+00 +5.2947159808206328e+00 +3.9772992533640121e+01 -2.5610272079872240e+04 -6.1625589111785032e+05 +1.4161996762369329e+08 
-3.2500000000000000e+00 -5.5178841370386678e-01 +7.2896444795100939e+00 +5.2725884192093915e+00 +4.0133823314035105e+01 -2.5688455530277850e+04 -6.1691692944886431e+05 +1.4198977133134139e+08 
-3.2999999999999998e+00 -5.5181119253297284e-01 +7.2908806066097718e+00 +5.2502053516596954e+00 +4.0484573353596112e+01 -2.5766566652350506e+04 -6.1750529641172662e+05 +1.4236161687545481e+08 
-3.3500000000000001e+00 -5.5183423397730502e-01 +7.2921295393555239e+00 +5.2275613591008110e+00 +4.0825298876033024e+01 -2.5844445587132599e+04 -6.1802176200166589e+05 +1.4273480581153452e+08 
-3.3999999999999999e+00 -5.5185753581886920e-01 +7.2933911081478540e+00 +5.2046510247903361e+00 +4.1156056257409666e+01 -2.5921932541307058e+04 -6.1846709753377782e+05 +1.4310864015510255e+08 
-3.4500000000000002e+00 -5.5188109583975153e-01 +7.2946651433923018e+00 +5.1814689314902225e+00 +4.1476901668636408e+01 -2.5998867705250643e+04 -6.1884207268600294e+05 +1.4348242179632089e+08 
-3.5000000000000000e+00 -5.5190491182200652e-01 +7.2959514754982617e+00 +5.1580096606789176e+00 +4.1787891133057620e+01 -2.6075091240075209e+04 -6.1914745596577006e+05 +1.4385545245131409e+08 
-3.5499999999999998e+00 -5.5192898154770587e-01 +7.2972499348679181e+00 +5.1342677957348162e+00 +4.2089080985888735e+01 -2.6150443350501733e+04 -6.1938401854045305e+05 +1.4422703410012066e+08 
-3.6000000000000001e+00 -5.5195330279893651e-01 +7.2985603519097841e+00 +5.1102379175681394e+00 +4.2380527303695537e+01 -2.6224764178037676e+04 -6.1955252948515839e+05 +1.4459646831117576e+08 
-3.6499999999999999e+00 -5.5197787335768966e-01 +7.2998825570326051e+00 +5.0859146087810352e+00 +4.2662286173939492e+01 -2.6297893910205214e+04 -6.1965375805491628e+05 +1.4496305696093613e+08 
-3.6999999999999900e+00 -5.5200269100612509e-01 +7.3012163806445303e+00 +5.0612924523782592e+00 +4.2934413705192981e+01 -2.6369672742110757e+04 -6.1968847372015880e+05 +1.4532610197244614e+08 
-3.7499999999999898e+00 -5.5202775352629252e-01 +7.3025616531548465e+00 +5.0363660308741824e+00 +4.3196965972522761e+01 -2.6439940858832611e+04 -6.1965744574929483e+05 +1.4568490520776898e+08 
-3.7999999999999901e+00 -5.5205305870024834e-01 +7.3039182049760942e+00 +5.0111299271295238e+00 +4.3449998933598181e+01 -2.6508538451757711e+04 -6.1956144254368008e+05 +1.4603876856259525e+08 
-3.8499999999999899e+00 -5.5207860431011779e-01 +7.3052858665189531e+00 +4.9855787220117129e+00 +4.3693568619714256e+01 -2.6575305659907201e+04 -6.1940123315491062e+05 +1.4638699358405000e+08 
-3.8999999999999901e+00 -5.5210438813794283e-01 +7.3066644681961588e+00 +4.9597069997851015e+00 +4.3927730995290666e+01 -2.6640082713136057e+04 -6.1917758617424045e+05 +1.4672888243269557e+08 
-3.9499999999999900e+00 -5.5213040796585700e-01 +7.3080538404212163e+00 +4.9335093417450988e+00 +4.4152541991289496e+01 -2.6702709758404035e+04 -6.1889126997103181e+05 +1.4706373669651389e+08 
-3.9999999999999898e+00 -5.5215666157589594e-01 +7.3094538136083624e+00 +4.9069803309414786e+00 +4.4368057528405366e+01 -2.6763026993546802e+04 -6.1854305290069059e+05 +1.4739085832615232e+08 
-4.0499999999999901e+00 -5.5218314668013813e-01 +7.3108642128889265e+00 +4.8801165197259309e+00 +4.4574453377928172e+01 -2.6820896000038520e+04 -6.1813448266332573e+05 +1.4770960518252185e+08 
-4.0999999999999899e+00 -5.5220986071036315e-01 +7.3122848382412631e+00 +4.8529226169980246e+00 +4.4772304170576859e+01 -2.6876268894422057e+04 -6.1766959408624156e+05 +1.4801959014970744e+08 
-4.1499999999999897e+00 -5.5223680102808548e-01 +7.3137154823464492e+00 +4.8254054446592756e+00 +4.4962263627821521e+01 -2.6929121157674024e+04 -6.1715288496560743e+05 +1.4832049388885969e+08 
-4.1999999999999904e+00 -5.5226396499501151e-01 +7.3151559378861801e+00 +4.7975718309371889e+00 +4.5144985405493863e+01 -2.6979428447917828e+04 -6.1658885255239822e+05 +1.4861199828967965e+08 
-4.2499999999999902e+00 -5.5229134997271190e-01 +7.3166059975406963e+00 +4.7694285986659493e+00 +4.5321123212958490e+01 -2.7027166274194471e+04 -6.1598199453695992e+05 +1.4889378422180972e+08 
-4.2999999999999901e+00 -5.5231895332281122e-01 +7.3180654539896226e+00 +4.7409825756465516e+00 +4.5491330769697825e+01 -2.7072310278497516e+04 -6.1533680868568784e+05 +1.4916553344830936e+08 
-4.3499999999999899e+00 -5.5234677240689889e-01 +7.3195340999132608e+00 +4.7122405841187476e+00 +4.5656261752784637e+01 -2.7114835958246476e+04 -6.1465779241114866e+05 +1.4942692677699515e+08 
-4.3999999999999897e+00 -5.5237480458655597e-01 +7.3210117279903439e+00 +4.6832094496035932e+00 +4.5816569879797491e+01 -2.7154718898621100e+04 -6.1394944341519137e+05 +1.4967764560830325e+08 
-4.4499999999999904e+00 -5.5240304722344769e-01 +7.3224981308996746e+00 +4.6538959987725343e+00 +4.5972908844130409e+01 -2.7191934717297048e+04 -6.1321625917725964e+05 +1.4991737156658196e+08 
-4.4999999999999902e+00 -5.5243149767913380e-01 +7.3239931013256570e+00 +4.6243070542375699e+00 +4.6125932099765940e+01 -2.7226458921141999e+04 -6.1246273522297735e+05 +1.5014578552215654e+08 
-4.5499999999999901e+00 -5.5246015331518594e-01 +7.3254964319403468e+00 +4.5944494408186243e+00 +4.6276293580570751e+01 -2.7258267078968471e+04 -6.1169337097276421e+05 +1.5036256877769125e+08 
-4.5999999999999899e+00 -5.5248901149322316e-01 +7.3270079154248631e+00 +4.5643299832605253e+00 +4.6424646820538740e+01 -2.7287334758757723e+04 -6.1091266251797881e+05 +1.5056740263004234e+08 
-4.6499999999999897e+00 -5.5251806957483485e-01 +7.3285273444575241e+00 +4.5339555059556371e+00 +4.6571645459647399e+01 -2.7313637518651300e+04 -6.1012510685068020e+05 +1.5075996831240925e+08 
-4.6999999999999904e+00 -5.5254732492162639e-01 +7.3300545117163507e+00 +4.5033328322604289e+00 +4.6717943112824990e+01 -2.7337150892825463e+04 -6.0933520067223918e+05 +1.5093994691206145e+08 
-4.7499999999999902e+00 -5.5257677489512558e-01 +7.3315892098764035e+00 +4.4724687865733346e+00 +4.6864193504030204e+01 -2.7357850442978004e+04 -6.0854744160248607e+05 +1.5110701969804099e+08 
-4.7999999999999901e+00 -5.5260641685693301e-01 +7.3331312316179416e+00 +4.4413701924709548e+00 +4.7011050112932033e+01 -2.7375711707991220e+04 -6.0776632519532740e+05 +1.5126086778518805e+08 
-4.8499999999999899e+00 -5.5263624816859069e-01 +7.3346803696131619e+00 +4.4100438732839615e+00 +4.7159166728289527e+01 -2.7390710221649111e+04 -6.0699634953674814e+05 +1.5140117226060322e+08 
-4.8999999999999897e+00 -5.5266626619174575e-01 +7.3362364165424827e+00 +4.3784966534233023e+00 +4.7309196765286998e+01 -2.7402821552798923e+04 -6.0624200958453957e+05 +1.5152761447090799e+08 
-4.9499999999999904e+00 -5.5269646828783725e-01 +7.3377991650763148e+00 +4.3467353536427344e+00 +4.7461794034039841e+01 -2.7412021167028000e+04 -6.0550780353910138e+05 +1.5163987504939863e+08 
-4.9999999999999902e+00 -5.5272685181851267e-01 +7.3393684078933381e+00 +4.3147667997900294e+00 +4.7617611970047108e+01 -2.7418284670148703e+04 -6.0479822647720063e+05 +1.5173763558645484e+08 
-5.0499999999999901e+00 -5.5275741414760227e-01 +7.3409439298631316e+00 +4.2825982148521833e+00 +4.7777295852894284e+01 -2.7421587490653350e+04 -6.0411777256819140e+05 +1.5182057694264075e+08 
