# trajectory
# s[mm] rx[mm] ry[mm] rz[mm] px[rad] py[rad] pz[rad]
0.0000000000000000e+00 +8.2850000000000001e+00 +0.0000000000000000e+00 +0.0000000000000000e+00 +0.0000000000000000e+00 +0.0000000000000000e+00 +1.0000000000000000e+00
5.0000000000000003e-02 +8.2849999307160704e+00 +0.0000000000000000e+00 +4.9999999999935991e-02 -2.7713562767178787e-06 +0.0000000000000000e+00 +9.9999999999615974e-01
1.0000000000000001e-01 +8.2849997228644519e+00 +0.0000000000000000e+00 +9.9999999999487971e-02 -5.5427078322757947e-06 +0.0000000000000000e+00 +9.9999999998463918e-01
1.5000000000000002e-01 +8.2849993764453345e+00 +0.0000000000000000e+00 +1.4999999999827190e-01 -8.3140565583068122e-06 +0.0000000000000000e+00 +9.9999999996543820e-01
2.0000000000000001e-01 +8.2849988914588124e+00 +0.0000000000000000e+00 +1.9999999999590379e-01 -1.1085404342400638e-05 +0.0000000000000000e+00 +9.9999999993855693e-01
2.5000000000000000e-01 +8.2849982679048857e+00 +0.0000000000000000e+00 +2.4999999999199959e-01 -1.3856753068103699e-05 +0.0000000000000000e+00 +9.9999999990399524e-01
2.9999999999999999e-01 +8.2849975057834602e+00 +0.0000000000000000e+00 +2.9999999998617533e-01 -1.6628104614919230e-05 +0.0000000000000000e+00 +9.9999999986175314e-01
3.4999999999999998e-01 +8.2849966050943475e+00 +0.0000000000000000e+00 +3.4999999997804693e-01 -1.9399460858307356e-05 +0.0000000000000000e+00 +9.9999999981183052e-01
3.9999999999999997e-01 +8.2849955658372654e+00 +0.0000000000000000e+00 +3.9999999996723040e-01 -2.2170823669685174e-05 +0.0000000000000000e+00 +9.9999999975422738e-01
4.4999999999999996e-01 +8.2849943880118406e+00 +0.0000000000000000e+00 +4.4999999995334167e-01 -2.4942194916426833e-05 +0.0000000000000000e+00 +9.9999999968894360e-01
4.9999999999999994e-01 +8.2849930716176026e+00 +0.0000000000000000e+00 +4.9999999993599675e-01 -2.7713576461863626e-05 +0.0000000000000000e+00 +9.9999999961597896e-01
5.4999999999999993e-01 +8.2849916166539916e+00 +0.0000000000000000e+00 +5.4999999991481152e-01 -3.0484970165284058e-05 +0.0000000000000000e+00 +9.9999999953533347e-01
5.9999999999999998e-01 +8.2849900231203524e+00 +0.0000000000000000e+00 +5.9999999988940200e-01 -3.3256377881933936e-05 +0.0000000000000000e+00 +9.9999999944700679e-01
6.5000000000000002e-01 +8.2849882910159387e+00 +0.0000000000000000e+00 +6.4999999985938417e-01 -3.6027801463016463e-05 +0.0000000000000000e+00 +9.9999999935099892e-01
7.0000000000000007e-01 +8.2849864203399104e+00 +0.0000000000000000e+00 +6.9999999982437389e-01 -3.8799242755692290e-05 +0.0000000000000000e+00 +9.9999999924730953e-01
7.5000000000000011e-01 +8.2849844110913367e+00 +0.0000000000000000e+00 +7.4999999978398713e-01 -4.1570703603079632e-05 +0.0000000000000000e+00 +9.9999999913593840e-01
8.0000000000000016e-01 +8.2849822632691943e+00 +0.0000000000000000e+00 +7.9999999973783975e-01 -4.4342185844254323e-05 +0.0000000000000000e+00 +9.9999999901688541e-01
8.5000000000000020e-01 +8.2849799768723660e+00 +0.0000000000000000e+00 +8.4999999968554762e-01 -4.7113691314249919e-05 +0.0000000000000000e+00 +9.9999999889015023e-01
9.0000000000000024e-01 +8.2849775518996456e+00 +0.0000000000000000e+00 +8.9999999962672672e-01 -4.9885221844057767e-05 +0.0000000000000000e+00 +9.9999999875573253e-01
9.5000000000000029e-01 +8.2849749883497346e+00 +0.0000000000000000e+00 +9.4999999956099279e-01 -5.2656779260627081e-05 +0.0000000000000000e+00 +9.9999999861363198e-01
1.0000000000000002e+00 +8.2849722862212420e+00 +0.0000000000000000e+00 +9.9999999948796181e-01 -5.5428365386865036e-05 +0.0000000000000000e+00 +9.9999999846384835e-01
1.0500000000000003e+00 +8.2849694455126865e+00 +0.0000000000000000e+00 +1.0499999994072495e+00 -5.8199982041636849e-05 +0.0000000000000000e+00 +9.9999999830638120e-01
1.1000000000000003e+00 +8.2849664662224978e+00 +0.0000000000000000e+00 +1.0999999993184719e+00 -6.0971631039765848e-05 +0.0000000000000000e+00 +9.9999999814123031e-01
1.1500000000000004e+00 +8.2849633483490130e+00 +0.0000000000000000e+00 +1.1499999992212446e+00 -6.3743314192033558e-05 +0.0000000000000000e+00 +9.9999999796839512e-01
1.2000000000000004e+00 +8.2849600918904791e+00 +0.0000000000000000e+00 +1.1999999991151835e+00 -6.6515033305179804e-05 +0.0000000000000000e+00 +9.9999999778787529e-01
1.2500000000000004e+00 +8.2849566968450539e+00 +0.0000000000000000e+00 +1.2499999989999042e+00 -6.9286790181902753e-05 +0.0000000000000000e+00 +9.9999999759967051e-01
1.3000000000000005e+00 +8.2849531632108029e+00 +0.0000000000000000e+00 +1.2999999988750226e+00 -7.2058586620859019e-05 +0.0000000000000000e+00 +9.9999999740378021e-01
1.3500000000000005e+00 +8.2849494909857029e+00 +0.0000000000000000e+00 +1.3499999987401543e+00 -7.4830424416663747e-05 +0.0000000000000000e+00 +9.9999999720020394e-01
1.4000000000000006e+00 +8.2849456801676418e+00 +0.0000000000000000e+00 +1.3999999985949150e+00 -7.7602305359890673e-05 +0.0000000000000000e+00 +9.9999999698894126e-01
1.4500000000000006e+00 +8.2849417307544186e+00 +0.0000000000000000e+00 +1.4499999984389202e+00 -8.0374231237072228e-05 +0.0000000000000000e+00 +9.9999999676999163e-01
1.5000000000000007e+00 +8.2849376427437402e+00 +0.0000000000000000e+00 +1.4999999982717860e+00 -8.3146203830699599e-05 +0.0000000000000000e+00 +9.9999999654335459e-01
1.5500000000000007e+00 +8.2849334161332280e+00 +0.0000000000000000e+00 +1.5499999980931276e+00 -8.5918224919222813e-05 +0.0000000000000000e+00 +9.9999999630902947e-01
1.6000000000000008e+00 +8.2849290509204110e+00 +0.0000000000000000e+00 +1.5999999979025608e+00 -8.8690296277050832e-05 +0.0000000000000000e+00 +9.9999999606701584e-01
1.6500000000000008e+00 +8.2849245471027331e+00 +0.0000000000000000e+00 +1.6499999976997011e+00 -9.1462419674551607e-05 +0.0000000000000000e+00 +9.9999999581731303e-01
1.7000000000000008e+00 +8.2849199046775475e+00 +0.0000000000000000e+00 +1.6999999974841640e+00 -9.4234596878052185e-05 +0.0000000000000000e+00 +9.9999999555992047e-01
1.7500000000000009e+00 +8.2849151236421203e+00 +0.0000000000000000e+00 +1.7499999972555649e+00 -9.7006829649838778e-05 +0.0000000000000000e+00 +9.9999999529483763e-01
1.8000000000000009e+00 +8.2849102039936273e+00 +0.0000000000000000e+00 +1.7999999970135194e+00 -9.9779119748156833e-05 +0.0000000000000000e+00 +9.9999999502206371e-01
1.8500000000000010e+00 +8.2849051457291605e+00 +0.0000000000000000e+00 +1.8499999967576430e+00 -1.0255146892721112e-04 +0.0000000000000000e+00 +9.9999999474159817e-01
1.9000000000000010e+00 +8.2848999488457213e+00 +0.0000000000000000e+00 +1.8999999964875511e+00 -1.0532387893716583e-04 +0.0000000000000000e+00 +9.9999999445344034e-01
1.9500000000000011e+00 +8.2848946133402244e+00 +0.0000000000000000e+00 +1.9499999962028589e+00 -1.0809635152414459e-04 +0.0000000000000000e+00 +9.9999999415758944e-01
2.0000000000000009e+00 +8.2848891392094970e+00 +0.0000000000000000e+00 +1.9999999959031818e+00 -1.1086888843023064e-04 +0.0000000000000000e+00 +9.9999999385404481e-01
2.0500000000000007e+00 +8.2848835264502796e+00 +0.0000000000000000e+00 +2.0499999955881352e+00 -1.1364149139322466e-04 +0.0000000000000000e+00 +9.9999999354280578e-01
2.1000000000000005e+00 +8.2848777750592273e+00 +0.0000000000000000e+00 +2.0999999952573343e+00 -1.1641416214398114e-04 +0.0000000000000000e+00 +9.9999999322387145e-01
2.1500000000000004e+00 +8.2848718850329064e+00 +0.0000000000000000e+00 +2.1499999949103943e+00 -1.1918690240374475e-04 +0.0000000000000000e+00 +9.9999999289724117e-01
2.2000000000000002e+00 +8.2848658563677997e+00 +0.0000000000000000e+00 +2.1999999945469302e+00 -1.2195971388390815e-04 +0.0000000000000000e+00 +9.9999999256291416e-01
2.2500000000000000e+00 +8.2848596890603030e+00 +0.0000000000000000e+00 +2.2499999941665574e+00 -1.2473259828601213e-04 +0.0000000000000000e+00 +9.9999999222088953e-01
2.2999999999999998e+00 +8.2848533831067286e+00 +0.0000000000000000e+00 +2.2999999937688909e+00 -1.2750555730174564e-04 +0.0000000000000000e+00 +9.9999999187116650e-01
2.3499999999999996e+00 +8.2848469385033017e+00 +0.0000000000000000e+00 +2.3499999933535456e+00 -1.3027859261294583e-04 +0.0000000000000000e+00 +9.9999999151374419e-01
2.3999999999999995e+00 +8.2848403552461676e+00 +0.0000000000000000e+00 +2.3999999929201370e+00 -1.3305170589159821e-04 +0.0000000000000000e+00 +9.9999999114862181e-01
2.4499999999999993e+00 +8.2848336333313863e+00 +0.0000000000000000e+00 +2.4499999924682796e+00 -1.3582489879983658e-04 +0.0000000000000000e+00 +9.9999999077579849e-01
2.4999999999999991e+00 +8.2848267727549345e+00 +0.0000000000000000e+00 +2.4999999919975884e+00 -1.3859817298994315e-04 +0.0000000000000000e+00 +9.9999999039527332e-01
2.5499999999999989e+00 +8.2848197735127069e+00 +0.0000000000000000e+00 +2.5499999915076783e+00 -1.4137153010434865e-04 +0.0000000000000000e+00 +9.9999999000704531e-01
2.5999999999999988e+00 +8.2848126356005150e+00 +0.0000000000000000e+00 +2.5999999909981644e+00 -1.4414497177563232e-04 +0.0000000000000000e+00 +9.9999998961111358e-01
2.6499999999999986e+00 +8.2848053590140918e+00 +0.0000000000000000e+00 +2.6499999904686611e+00 -1.4691849962652194e-04 +0.0000000000000000e+00 +9.9999998920747724e-01
2.6999999999999984e+00 +8.2847979437490888e+00 +0.0000000000000000e+00 +2.6999999899187834e+00 -1.4969211526989399e-04 +0.0000000000000000e+00 +9.9999998879613528e-01
2.7499999999999982e+00 +8.2847903898010760e+00 +0.0000000000000000e+00 +2.7499999893481459e+00 -1.5246582030877364e-04 +0.0000000000000000e+00 +9.9999998837708681e-01
2.7999999999999980e+00 +8.2847826971655429e+00 +0.0000000000000000e+00 +2.7999999887563636e+00 -1.5523961633633477e-04 +0.0000000000000000e+00 +9.9999998795033074e-01
2.8499999999999979e+00 +8.2847748658378997e+00 +0.0000000000000000e+00 +2.8499999881430504e+00 -1.5801350493590009e-04 +0.0000000000000000e+00 +9.9999998751586605e-01
2.8999999999999977e+00 +8.2847668958134797e+00 +0.0000000000000000e+00 +2.8999999875078215e+00 -1.6078748768094117e-04 +0.0000000000000000e+00 +9.9999998707369187e-01
2.9499999999999975e+00 +8.2847587870875365e+00 +0.0000000000000000e+00 +2.9499999868502913e+00 -1.6356156613507849e-04 +0.0000000000000000e+00 +9.9999998662380696e-01
2.9999999999999973e+00 +8.2847505396552457e+00 +0.0000000000000000e+00 +2.9999999861700739e+00 -1.6633574185208146e-04 +0.0000000000000000e+00 +9.9999998616621044e-01
3.0499999999999972e+00 +8.2847421535117043e+00 +0.0000000000000000e+00 +3.0499999854667839e+00 -1.6911001637586853e-04 +0.0000000000000000e+00 +9.9999998570090110e-01
3.0999999999999970e+00 +8.2847336286519351e+00 +0.0000000000000000e+00 +3.0999999847400357e+00 -1.7188439124050719e-04 +0.0000000000000000e+00 +9.9999998522787792e-01
3.1499999999999968e+00 +8.2847249650708825e+00 +0.0000000000000000e+00 +3.1499999839894435e+00 -1.7465886797021407e-04 +0.0000000000000000e+00 +9.9999998474713980e-01
3.1999999999999966e+00 +8.2847161627634147e+00 +0.0000000000000000e+00 +3.1999999832146213e+00 -1.7743344807935493e-04 +0.0000000000000000e+00 +9.9999998425868564e-01
3.2499999999999964e+00 +8.2847072217243269e+00 +0.0000000000000000e+00 +3.2499999824151833e+00 -1.8020813307244470e-04 +0.0000000000000000e+00 +9.9999998376251431e-01
3.2999999999999963e+00 +8.2846981419483345e+00 +0.0000000000000000e+00 +3.2999999815907439e+00 -1.8298292444414758e-04 +0.0000000000000000e+00 +9.9999998325862460e-01
3.3499999999999961e+00 +8.2846889234300836e+00 +0.0000000000000000e+00 +3.3499999807409169e+00 -1.8575782367927706e-04 +0.0000000000000000e+00 +9.9999998274701540e-01
3.3999999999999959e+00 +8.2846795661641437e+00 +0.0000000000000000e+00 +3.3999999798653167e+00 -1.8853283225279599e-04 +0.0000000000000000e+00 +9.9999998222768549e-01
3.4499999999999957e+00 +8.2846700701450118e+00 +0.0000000000000000e+00 +3.4499999789635569e+00 -1.9130795162981655e-04 +0.0000000000000000e+00 +9.9999998170063376e-01
3.4999999999999956e+00 +8.2846604353671101e+00 +0.0000000000000000e+00 +3.4999999780352513e+00 -1.9408318326560035e-04 +0.0000000000000000e+00 +9.9999998116585886e-01
3.5499999999999954e+00 +8.2846506618247897e+00 +0.0000000000000000e+00 +3.5499999770800139e+00 -1.9685852860555847e-04 +0.0000000000000000e+00 +9.9999998062335971e-01
3.5999999999999952e+00 +8.2846407495123309e+00 +0.0000000000000000e+00 +3.5999999760974584e+00 -1.9963398908525148e-04 +0.0000000000000000e+00 +9.9999998007313506e-01
3.6499999999999950e+00 +8.2846306984239391e+00 +0.0000000000000000e+00 +3.6499999750871983e+00 -2.0240956613038950e-04 +0.0000000000000000e+00 +9.9999997951518360e-01
3.6999999999999948e+00 +8.2846205085537505e+00 +0.0000000000000000e+00 +3.6999999740488478e+00 -2.0518526115683220e-04 +0.0000000000000000e+00 +9.9999997894950410e-01
3.7499999999999947e+00 +8.2846101798958323e+00 +0.0000000000000000e+00 +3.7499999729820201e+00 -2.0796107557058887e-04 +0.0000000000000000e+00 +9.9999997837609533e-01
3.7999999999999945e+00 +8.2845997124441801e+00 +0.0000000000000000e+00 +3.7999999718863284e+00 -2.1073701076781845e-04 +0.0000000000000000e+00 +9.9999997779495597e-01
3.8499999999999943e+00 +8.2845891061927190e+00 +0.0000000000000000e+00 +3.8499999707613868e+00 -2.1351306813482959e-04 +0.0000000000000000e+00 +9.9999997720608469e-01
3.8999999999999941e+00 +8.2845783611353063e+00 +0.0000000000000000e+00 +3.8999999696068079e+00 -2.1628924904808062e-04 +0.0000000000000000e+00 +9.9999997660948015e-01
3.9499999999999940e+00 +8.2845674772657318e+00 +0.0000000000000000e+00 +3.9499999684222056e+00 -2.1906555487417965e-04 +0.0000000000000000e+00 +9.9999997600514112e-01
3.9999999999999938e+00 +8.2845564545777144e+00 +0.0000000000000000e+00 +3.9999999672071929e+00 -2.2184198696988456e-04 +0.0000000000000000e+00 +9.9999997539306618e-01
4.0499999999999936e+00 +8.2845452930649071e+00 +0.0000000000000000e+00 +4.0499999659613835e+00 -2.2461854668196911e-04 +0.0000000000000000e+00 +9.9999997477325397e-01
4.0999999999999934e+00 +8.2845339927208972e+00 +0.0000000000000000e+00 +4.0999999646843897e+00 -2.2739523534575000e-04 +0.0000000000000000e+00 +9.9999997414570319e-01
4.1499999999999932e+00 +8.2845225535392029e+00 +0.0000000000000000e+00 +4.1499999633758247e+00 -2.3017205428361366e-04 +0.0000000000000000e+00 +9.9999997351041237e-01
4.1999999999999931e+00 +8.2845109755132764e+00 +0.0000000000000000e+00 +4.1999999620353021e+00 -2.3294900480488244e-04 +0.0000000000000000e+00 +9.9999997286738018e-01
4.2499999999999929e+00 +8.2844992586365080e+00 +0.0000000000000000e+00 +4.2499999606624339e+00 -2.3572608820581463e-04 +0.0000000000000000e+00 +9.9999997221660530e-01
4.2999999999999927e+00 +8.2844874029022204e+00 +0.0000000000000000e+00 +4.2999999592568336e+00 -2.3850330576960437e-04 +0.0000000000000000e+00 +9.9999997155808618e-01
4.3499999999999925e+00 +8.2844754083036740e+00 +0.0000000000000000e+00 +4.3499999578181132e+00 -2.4128065876638174e-04 +0.0000000000000000e+00 +9.9999997089182147e-01
4.3999999999999924e+00 +8.2844632748340654e+00 +0.0000000000000000e+00 +4.3999999563458863e+00 -2.4405814845321274e-04 +0.0000000000000000e+00 +9.9999997021780973e-01
4.4499999999999922e+00 +8.2844510024865290e+00 +0.0000000000000000e+00 +4.4499999548397646e+00 -2.4683577607409924e-04 +0.0000000000000000e+00 +9.9999996953604942e-01
4.4999999999999920e+00 +8.2844385912541387e+00 +0.0000000000000000e+00 +4.4999999532993620e+00 -2.4961354285997901e-04 +0.0000000000000000e+00 +9.9999996884653919e-01
4.5499999999999918e+00 +8.2844260411299047e+00 +0.0000000000000000e+00 +4.5499999517242893e+00 -2.5239145002872580e-04 +0.0000000000000000e+00 +9.9999996814927750e-01
4.5999999999999917e+00 +8.2844133521067764e+00 +0.0000000000000000e+00 +4.5999999501141602e+00 -2.5516949878514917e-04 +0.0000000000000000e+00 +9.9999996744426289e-01
4.6499999999999915e+00 +8.2844005241776468e+00 +0.0000000000000000e+00 +4.6499999484685866e+00 -2.5794769032099456e-04 +0.0000000000000000e+00 +9.9999996673149394e-01
4.6999999999999913e+00 +8.2843875573353465e+00 +0.0000000000000000e+00 +4.6999999467871802e+00 -2.6072602581494336e-04 +0.0000000000000000e+00 +9.9999996601096908e-01
4.7499999999999911e+00 +8.2843744515726474e+00 +0.0000000000000000e+00 +4.7499999450695540e+00 -2.6350450643261271e-04 +0.0000000000000000e+00 +9.9999996528268686e-01
4.7999999999999909e+00 +8.2843612068822647e+00 +0.0000000000000000e+00 +4.7999999433153198e+00 -2.6628313332655571e-04 +0.0000000000000000e+00 +9.9999996454664575e-01
4.8499999999999908e+00 +8.2843478232568568e+00 +0.0000000000000000e+00 +4.8499999415240893e+00 -2.6906190763626125e-04 +0.0000000000000000e+00 +9.9999996380284417e-01
4.8999999999999906e+00 +8.2843343006890251e+00 +0.0000000000000000e+00 +4.8999999396954745e+00 -2.7184083048815402e-04 +0.0000000000000000e+00 +9.9999996305128069e-01
4.9499999999999904e+00 +8.2843206391713142e+00 +0.0000000000000000e+00 +4.9499999378290873e+00 -2.7461990299559451e-04 +0.0000000000000000e+00 +9.9999996229195365e-01
4.9999999999999902e+00 +8.2843068386962138e+00 +0.0000000000000000e+00 +4.9999999359245404e+00 -2.7739912625887906e-04 +0.0000000000000000e+00 +9.9999996152486159e-01
5.0499999999999901e+00 +8.2842928992561582e+00 +0.0000000000000000e+00 +5.0499999339814448e+00 -2.8017850136523970e-04 +0.0000000000000000e+00 +9.9999996075000286e-01
5.0999999999999899e+00 +8.2842788208435287e+00 +0.0000000000000000e+00 +5.0999999319994114e+00 -2.8295802938884421e-04 +0.0000000000000000e+00 +9.9999995996737590e-01
5.1499999999999897e+00 +8.2842646034506533e+00 +0.0000000000000000e+00 +5.1499999299780530e+00 -2.8573771139079614e-04 +0.0000000000000000e+00 +9.9999995917697926e-01
5.1999999999999895e+00 +8.2842502470698065e+00 +0.0000000000000000e+00 +5.1999999279169797e+00 -2.8851754841913467e-04 +0.0000000000000000e+00 +9.9999995837881117e-01
5.2499999999999893e+00 +8.2842357516932115e+00 +0.0000000000000000e+00 +5.2499999258158043e+00 -2.9129754150883467e-04 +0.0000000000000000e+00 +9.9999995757287019e-01
5.2999999999999892e+00 +8.2842211173130380e+00 +0.0000000000000000e+00 +5.2999999236741377e+00 -2.9407769168180662e-04 +0.0000000000000000e+00 +9.9999995675915465e-01
5.3499999999999890e+00 +8.2842063439214080e+00 +0.0000000000000000e+00 +5.3499999214915910e+00 -2.9685799994689664e-04 +0.0000000000000000e+00 +9.9999995593766289e-01
5.3999999999999888e+00 +8.2841914315103917e+00 +0.0000000000000000e+00 +5.3999999192677750e+00 -2.9963846729988642e-04 +0.0000000000000000e+00 +9.9999995510839335e-01
5.4499999999999886e+00 +8.2841763800720098e+00 +0.0000000000000000e+00 +5.4499999170023008e+00 -3.0241909472349316e-04 +0.0000000000000000e+00 +9.9999995427134447e-01
5.4999999999999885e+00 +8.2841611895982350e+00 +0.0000000000000000e+00 +5.4999999146947793e+00 -3.0519988318736957e-04 +0.0000000000000000e+00 +9.9999995342651449e-01
5.5499999999999883e+00 +8.2841458600809919e+00 +0.0000000000000000e+00 +5.5499999123448225e+00 -3.0798083364810380e-04 +0.0000000000000000e+00 +9.9999995257390184e-01
5.5999999999999881e+00 +8.2841303915121554e+00 +0.0000000000000000e+00 +5.5999999099520403e+00 -3.1076194704921954e-04 +0.0000000000000000e+00 +9.9999995171350486e-01
5.6499999999999879e+00 +8.2841147838835560e+00 +0.0000000000000000e+00 +5.6499999075160439e+00 -3.1354322432117573e-04 +0.0000000000000000e+00 +9.9999995084532189e-01
5.6999999999999877e+00 +8.2840990371869765e+00 +0.0000000000000000e+00 +5.6999999050364432e+00 -3.1632466638136674e-04 +0.0000000000000000e+00 +9.9999994996935138e-01
5.7499999999999876e+00 +8.2840831514141566e+00 +0.0000000000000000e+00 +5.7499999025128492e+00 -3.1910627413412224e-04 +0.0000000000000000e+00 +9.9999994908559153e-01
5.7999999999999874e+00 +8.2840671265567867e+00 +0.0000000000000000e+00 +5.7999998999448721e+00 -3.2188804847070709e-04 +0.0000000000000000e+00 +9.9999994819404070e-01
5.8499999999999872e+00 +8.2840509626065177e+00 +0.0000000000000000e+00 +5.8499998973321228e+00 -3.2466999026932144e-04 +0.0000000000000000e+00 +9.9999994729469721e-01
5.8999999999999870e+00 +8.2840346595549548e+00 +0.0000000000000000e+00 +5.8999998946742114e+00 -3.2745210039510059e-04 +0.0000000000000000e+00 +9.9999994638755940e-01
