# multipoles
# s[mm] polynom_b[n=0][T/m^n] polynom_b[n=1][T/m^n] polynom_b[n=2][T/m^n] polynom_b[n=3][T/m^n] polynom_b[n=4][T/m^n] polynom_b[n=5][T/m^n] polynom_b[n=6][T/m^n] 
+0.0000000000000000e+00 -5.5002317974529602e-01 +7.2084140883613976e+00 +5.9446751476836486e+00 -5.0047685209579946e+01 -1.0252216519020139e+04 -9.7925939566869630e+01 +7.3016773814073652e+07 
-5.0000000000000003e-02 -5.5002493762110038e-01 +7.2084495656994996e+00 +5.9433870802540065e+00 -5.0165836206070665e+01 -1.0221142581586686e+04 +4.8842379660706035e+02 +7.2756708434526443e+07 
-1.0000000000000001e-01 -5.5002708133310974e-01 +7.2085061463246864e+00 +5.9414613871292357e+00 -5.0292689997467647e+01 -1.0185706134873195e+04 +1.1741999829395972e+03 +7.2469164649503663e+07 
-1.5000000000000002e-01 -5.5002961009124818e-01 +7.2085837351154698e+00 +5.9389045874787270e+00 -5.0427142116717910e+01 -1.0146051036179049e+04 +1.9524543255141257e+03 +7.2155164527250275e+07 
-2.0000000000000001e-01 -5.5003252310542883e-01 +7.2086822369529306e+00 +5.9357231963478441e+00 -5.0568088181515847e+01 -1.0102321040848390e+04 +2.8162392670291656e+03 +7.1815729482026815e+07 
-2.5000000000000000e-01 -5.5003581958559045e-01 +7.2088015567167094e+00 +5.9319237289109203e+00 -5.0714423714705397e+01 -1.0054659894901113e+04 +3.7586064317302166e+03 +7.1451880814091027e+07 
-2.9999999999999999e-01 -5.5003949874168800e-01 +7.2089415992902843e+00 +5.9275127008302588e+00 -5.0865044380416037e+01 -1.0003211365268351e+04 +4.7726086549971360e+03 +7.1064639993158400e+07 
-3.4999999999999998e-01 -5.5004355978369646e-01 +7.2091022695548608e+00 +5.9224966280503510e+00 -5.1018845715561085e+01 -9.9481192256412251e+03 +5.8512977066091498e+03 +7.0655028530757070e+07 
-3.9999999999999997e-01 -5.5004800192159775e-01 +7.2092834723935750e+00 +5.9168820247231046e+00 -5.1174723301556917e+01 -9.8895271997087330e+03 +6.9877256960693385e+03 +7.0224067589949459e+07 
-4.4999999999999996e-01 -5.5005282436541891e-01 +7.2094851126932440e+00 +5.9106754096034031e+00 -5.1331572854070679e+01 -9.8275791357224116e+03 +8.1749458716694880e+03 +6.9772779178174451e+07 
-4.9999999999999994e-01 -5.5005802632516287e-01 +7.2097070953349496e+00 +5.9038832948671534e+00 -5.1488289823167065e+01 -9.7624187100061899e+03 +9.4060092831464117e+03 +6.9302184159859329e+07 
-5.4999999999999993e-01 -5.5006360701089907e-01 +7.2099493252080915e+00 +5.8965122002461463e+00 -5.1643769967004431e+01 -9.6941897931169769e+03 +1.0673969498674047e+04 +6.8813304674806297e+07 
-5.9999999999999998e-01 -5.5006956563265474e-01 +7.2102117071994316e+00 +5.8885686361474860e+00 -5.1796908919445229e+01 -9.6230360143028010e+03 +1.1971879090735254e+04 +6.8307161267409936e+07 
-6.5000000000000002e-01 -5.5007590140053697e-01 +7.2104941461934020e+00 +5.8800591231067791e+00 -5.1946602180095311e+01 -9.5491012675575821e+03 +1.3292789495509040e+04 +6.7784776239025787e+07 
-7.0000000000000007e-01 -5.5008261352461552e-01 +7.2107965470793891e+00 +5.8709901732918661e+00 -5.2091745432366281e+01 -9.4725292337991559e+03 +1.4629753668609093e+04 +6.7247170498101696e+07 
-7.5000000000000011e-01 -5.5008970121501177e-01 +7.2111188147497858e+00 +5.8613683039655209e+00 -5.2231234445620920e+01 -9.3934637202945123e+03 +1.5975825230647606e+04 +6.6695365761030234e+07 
-8.0000000000000016e-01 -5.5009716368185346e-01 +7.2114608540903298e+00 +5.8512000307062673e+00 -5.2363964705259519e+01 -9.3120484920513263e+03 +1.7324055528563083e+04 +6.6130383472376823e+07 
-8.5000000000000020e-01 -5.5010500013527752e-01 +7.2118225699940277e+00 +5.8404918684088392e+00 -5.2488831955380896e+01 -9.2284273026856299e+03 +1.8667497980854681e+04 +6.5553245023052543e+07 
-9.0000000000000024e-01 -5.5011320978543943e-01 +7.2122038673496291e+00 +5.8292503318190683e+00 -5.2604731732144415e+01 -9.1427438958267976e+03 +1.9999204243492361e+04 +6.4964971712309510e+07 
-9.5000000000000029e-01 -5.5012179184252108e-01 +7.2126046510530415e+00 +5.8174819377421532e+00 -5.2710559855340549e+01 -9.0551420756129264e+03 +2.1312228382705955e+04 +6.4366585266303718e+07 
-1.0000000000000002e+00 -5.5013074551670227e-01 +7.2130248259950269e+00 +5.8051931993571255e+00 -5.2805211894447453e+01 -8.9657655466930137e+03 +2.2599622333473144e+04 +6.3759106733672872e+07 
-1.0500000000000003e+00 -5.5014007001819898e-01 +7.2134642970679721e+00 +5.7923906341777318e+00 -5.2887583462357185e+01 -8.8747581360642234e+03 +2.3854438394928591e+04 +6.3143558003174201e+07 
-1.1000000000000003e+00 -5.5014976455722731e-01 +7.2139229691673163e+00 +5.7790807559918003e+00 -5.2956570270981565e+01 -8.7822635645810678e+03 +2.5069729664750466e+04 +6.2520960228731230e+07 
-1.1500000000000004e+00 -5.5015982834403043e-01 +7.2144007471873657e+00 +5.7652700811014936e+00 -5.3011067959528305e+01 -8.6884256276131855e+03 +2.6238548635486837e+04 +6.1892335089844733e+07 
-1.2000000000000004e+00 -5.5017026058885232e-01 +7.2148975360252061e+00 +5.7509651228920102e+00 -5.3049972242124404e+01 -8.5933880412006329e+03 +2.7353948341054343e+04 +6.1258703728357203e+07 
-1.2500000000000004e+00 -5.5018106050195648e-01 +7.2154132405753568e+00 +5.7361723958928890e+00 -5.3072178720597769e+01 -8.4972945531958121e+03 +2.8408980970201006e+04 +6.0621087497096568e+07 
-1.3000000000000005e+00 -5.5019222729363970e-01 +7.2159477657348763e+00 +5.7208984171691633e+00 -5.3076583056617920e+01 -8.4002889828950156e+03 +2.9396699098835492e+04 +5.9980508250712872e+07 
-1.3500000000000005e+00 -5.5020376017418748e-01 +7.2165010164020709e+00 +5.7051496993483770e+00 -5.3062080942129533e+01 -8.3025150286615590e+03 +3.0310155562453165e+04 +5.9337987014443852e+07 
-1.4000000000000006e+00 -5.5021565835392294e-01 +7.2170728974734093e+00 +5.6889327593949224e+00 -5.3027567974101864e+01 -8.2041165142175159e+03 +3.1142402429415641e+04 +5.8694545694429882e+07 
-1.4500000000000006e+00 -5.5022792104315732e-01 +7.2176633138511264e+00 +5.6722541084086657e+00 -5.2971939952664158e+01 -8.1052370953527170e+03 +3.1886493377950763e+04 +5.8051205022572652e+07 
-1.5000000000000007e+00 -5.5024054745224760e-01 +7.2182721704303798e+00 +5.6551202640025142e+00 -5.2894092350817566e+01 -8.0060206140610480e+03 +3.2535479345802301e+04 +5.7408987025117002e+07 
-1.5500000000000007e+00 -5.5025353679153932e-01 +7.2188993721137464e+00 +5.6375377384577252e+00 -5.2792920936407327e+01 -7.9066107680677223e+03 +3.3082413730106062e+04 +5.6768912756927408e+07 
-1.6000000000000008e+00 -5.5026688827140557e-01 +7.2195448237994295e+00 +5.6195130465093683e+00 -5.2667321261274495e+01 -7.8071513220867146e+03 +3.3520348092714019e+04 +5.6132003721293084e+07 
-1.6500000000000008e+00 -5.5028060110222476e-01 +7.2202084303923382e+00 +5.6010527013716453e+00 -5.2516189124791957e+01 -7.7077860047603363e+03 +3.3842335998869152e+04 +5.5499281198708177e+07 
-1.7000000000000008e+00 -5.5029467449440805e-01 +7.2208900967914875e+00 +5.5821632188056238e+00 -5.2338420065734446e+01 -7.6086586091836180e+03 +3.4041428876052960e+04 +5.4871766887846455e+07 
-1.7500000000000009e+00 -5.5030910765835095e-01 +7.2215897278973511e+00 +5.5628511101085349e+00 -5.2132909644266761e+01 -7.5099128182684126e+03 +3.4110678252086102e+04 +5.4250481778319307e+07 
-1.8000000000000009e+00 -5.5032389980448693e-01 +7.2223072286150680e+00 +5.5431228900709515e+00 -5.1898553599267778e+01 -7.4116924035992761e+03 +3.4043137149860726e+04 +5.3636447437830850e+07 
-1.8500000000000010e+00 -5.5033905014325457e-01 +7.2230425038482036e+00 +5.5229850718350244e+00 -5.1634247563779610e+01 -7.3141410988950647e+03 +3.3831857631141167e+04 +5.3030685204934865e+07 
-1.9000000000000010e+00 -5.5035455788510890e-01 +7.2237954584998647e+00 +5.5024441694345283e+00 -5.1338887132466148e+01 -7.2174026637564202e+03 +3.3469891441077496e+04 +5.2434216594139151e+07 
-1.9500000000000011e+00 -5.5037042224050881e-01 +7.2245659974743477e+00 +5.4815066945898296e+00 -5.1011367924284244e+01 -7.1216207967962173e+03 +3.2950290502524113e+04 +5.1848062715143353e+07 
-2.0000000000000009e+00 -5.5038664241994073e-01 +7.2253540256766122e+00 +5.4601791616750877e+00 -5.0650585557282461e+01 -7.0269392715010663e+03 +3.2266106688268588e+04 +5.1273245195059933e+07 
-2.0500000000000007e+00 -5.5040321742346487e-01 +7.2261594529791573e+00 +5.4384674925639640e+00 -5.0255931439986981e+01 -6.9334638281638763e+03 +3.1413201394910495e+04 +5.0710493770914420e+07 
-2.1000000000000005e+00 -5.5042014540949769e-01 +7.2269822042956164e+00 +5.4163751429325195e+00 -4.9828828055739415e+01 -6.8411352966701470e+03 +3.0398969535366290e+04 +5.0159298689954728e+07 
-2.1500000000000004e+00 -5.5043742432605558e-01 +7.2278222071014069e+00 +5.3939049321533181e+00 -4.9371218311590518e+01 -6.7498499134884296e+03 +2.9233760948231255e+04 +4.9618821266362458e+07 
-2.2000000000000002e+00 -5.5045505212115187e-01 +7.2286793888687093e+00 +5.3710596760658129e+00 -4.8885044966206607e+01 -6.6595038130623798e+03 +2.7927924214267063e+04 +4.9088222106559247e+07 
-2.2500000000000000e+00 -5.5047302674283627e-01 +7.2295536770736142e+00 +5.3478421947731309e+00 -4.8372250936687237e+01 -6.5699932434402608e+03 +2.6491809276256732e+04 +4.8566662577672720e+07 
-2.2999999999999998e+00 -5.5049134613915252e-01 +7.2304449991914783e+00 +5.3242553055954254e+00 -4.7834779073701483e+01 -6.4812143814453120e+03 +2.4935765433707362e+04 +4.8053303580127902e+07 
-2.3499999999999996e+00 -5.5051000825815766e-01 +7.2313532826971940e+00 +5.3003018252157830e+00 -4.7274572219555608e+01 -6.3930633786670287e+03 +2.3270142035878096e+04 +4.7547305816447347e+07 
-2.3999999999999995e+00 -5.5052901104794283e-01 +7.2322784550664680e+00 +5.2759845750629806e+00 -4.6693573234798627e+01 -6.3054365204017477e+03 +2.1505288555997151e+04 +4.7047830912184797e+07 
-2.4499999999999993e+00 -5.5054835245658551e-01 +7.2332204437764895e+00 +5.2513063713167369e+00 -4.6093725023401312e+01 -6.2182299438453319e+03 +1.9651554828137287e+04 +4.6554039471545957e+07 
-2.4999999999999991e+00 -5.5056803043218039e-01 +7.2341791763057044e+00 +5.2262700315812758e+00 -4.5476970539735944e+01 -6.1313398244009804e+03 +1.7719291142749473e+04 +4.6065092351059303e+07 
-2.5499999999999989e+00 -5.5058804292286712e-01 +7.2351545801282500e+00 +5.2008783786013648e+00 -4.4845252549310011e+01 -6.0446624722623756e+03 +1.5718846233246699e+04 +4.5580151311983310e+07 
-2.5999999999999988e+00 -5.5060838787674926e-01 +7.2361465827224096e+00 +5.1751342275549321e+00 -4.4200513974171969e+01 -5.9580939964382433e+03 +1.3660570125546874e+04 +4.5098376762962587e+07 
-2.6499999999999986e+00 -5.5062906324196970e-01 +7.2371551115648609e+00 +5.1490403977118229e+00 -4.3544697673622174e+01 -5.8715306066816502e+03 +1.1554812382700449e+04 +4.4618929759260282e+07 
-2.6999999999999984e+00 -5.5065006696669050e-01 +7.2381800941361902e+00 +5.1225997103374166e+00 -4.2879746651415402e+01 -5.7848685709971278e+03 +9.4119237469961136e+03 +4.4140971768422037e+07 
-2.7499999999999982e+00 -5.5067139699906698e-01 +7.2392214579137804e+00 +5.0958149832118913e+00 -4.2207603789909015e+01 -5.6980040584551780e+03 +7.2422540440496559e+03 +4.3663663572645441e+07 
-2.7999999999999980e+00 -5.5069305128727586e-01 +7.2402791303740397e+00 +5.0686890361229207e+00 -4.1530211897955702e+01 -5.6108332894295927e+03 +5.0561523995728530e+03 +4.3186166288704328e+07 
-2.8499999999999979e+00 -5.5071502777950776e-01 +7.2413530389986720e+00 +5.0412246891894483e+00 -4.0849514030459424e+01 -5.5232524914870692e+03 +2.8639701285235487e+03 +4.2707641080782242e+07 
-2.8999999999999977e+00 -5.5073732442396173e-01 +7.2424431112651408e+00 +5.0134247621609536e+00 -4.0167453037501815e+01 -5.4351578774896916e+03 +6.7605677211625903e+02 +4.2227248993751764e+07 
-2.9499999999999975e+00 -5.5075993916884602e-01 +7.2435492746530059e+00 +4.9852920747337066e+00 -3.9485971872922654e+01 -5.3464456593157174e+03 -1.4972371598351526e+03 +4.1744151071793362e+07 
-2.9999999999999973e+00 -5.5078286996239023e-01 +7.2446714566432577e+00 +4.9568294477739236e+00 -3.8807013538047791e+01 -5.2570120697846341e+03 -3.6455607735414651e+03 +4.1257508461189546e+07 
-3.0499999999999972e+00 -5.5080611475282570e-01 +7.2458095847126041e+00 +4.9280397019784532e+00 -3.8132520847395369e+01 -5.1667533460300456e+03 -5.7585647306122173e+03 +4.0766482372720577e+07 
-3.0999999999999970e+00 -5.5082967148839734e-01 +7.2469635863437905e+00 +4.8989256574343862e+00 -3.7464436894842045e+01 -5.0755656948974947e+03 -7.8258972202769428e+03 +4.0270233762339786e+07 
-3.1499999999999968e+00 -5.5085353811736970e-01 +7.2481333890161377e+00 +4.8694901363661733e+00 -3.6804704592791644e+01 -4.9833453820630193e+03 -9.8372080629629454e+03 +3.9767923990616649e+07 
-3.1999999999999966e+00 -5.5087771258800844e-01 +7.2493189202094994e+00 +4.8397359594108336e+00 -3.6155266906807142e+01 -4.8899886233055322e+03 -1.1782146485758038e+04 +3.9258714053651303e+07 
-3.2499999999999964e+00 -5.5090219284858488e-01 +7.2505201074032772e+00 +4.8096659467451293e+00 -3.5518066773183051e+01 -4.7953916252761519e+03 -1.3650361965831775e+04 +3.8741764905109018e+07 
-3.2999999999999963e+00 -5.5092697684740921e-01 +7.2517368780800897e+00 +4.7792829232890748e+00 -3.4895047263457556e+01 -4.6994507113117097e+03 -1.5431502826262795e+04 +3.8216238243139416e+07 
-3.3499999999999961e+00 -5.5095206253276918e-01 +7.2529691597207782e+00 +4.7485897083520747e+00 -3.4288151382401963e+01 -4.6020620512199885e+03 -1.7115217895172864e+04 +3.7681294724666744e+07 
-3.3999999999999959e+00 -5.5097744785297897e-01 +7.2542168798050195e+00 +4.7175891248704378e+00 -3.3699322095239623e+01 -4.5031219115742897e+03 -1.8691156259754396e+04 +3.7136095655585192e+07 
-3.4499999999999957e+00 -5.5100313075637564e-01 +7.2554799658141151e+00 +4.6862839975111052e+00 -3.3130502423798603e+01 -4.4025265985127226e+03 -2.0148966559995912e+04 +3.6579802589923963e+07 
-3.4999999999999956e+00 -5.5102910919129022e-01 +7.2567583452291906e+00 +4.6546771484990721e+00 -3.2583635405803435e+01 -4.3001723469511944e+03 -2.1478297194353316e+04 +3.6011576578428388e+07 
-3.5499999999999954e+00 -5.5105538110606322e-01 +7.2580519455324239e+00 +4.6227714004067906e+00 -3.2060664116346118e+01 -4.1959554010701504e+03 -2.2668796252518088e+04 +3.5430578740240201e+07 
-3.5999999999999952e+00 -5.5108194444904968e-01 +7.2593606942034956e+00 +4.5905695766417942e+00 -3.1563531542480245e+01 -4.0897720182357157e+03 -2.3710112478402643e+04 +3.4835970248376973e+07 
-3.6499999999999950e+00 -5.5110879716862604e-01 +7.2606845187242026e+00 +4.5580745026007010e+00 -3.1094180764053860e+01 -3.9815185048561780e+03 -2.4591893799096095e+04 +3.4226912594801687e+07 
-3.6999999999999948e+00 -5.5113593721315979e-01 +7.2620233465766599e+00 +4.5252890014168283e+00 -3.0654554873040510e+01 -3.8710911069410968e+03 -2.5303788044142671e+04 +3.3602566866681553e+07 
-3.7499999999999947e+00 -5.5116336253104170e-01 +7.2633771052417755e+00 +4.4922158979155267e+00 -3.0246596936881335e+01 -3.7583861025150522e+03 -2.5835443122287048e+04 +3.2962094321515039e+07 
-3.7999999999999945e+00 -5.5119107107067611e-01 +7.2647457221992466e+00 +4.4588580186366640e+00 -2.9872249981501053e+01 -3.6432998183825075e+03 -2.6176507239404611e+04 +3.2304656558803994e+07 
-3.8499999999999943e+00 -5.5121906078046357e-01 +7.2661291249332907e+00 +4.4252181876774603e+00 -2.9533457214639604e+01 -3.5257285044639239e+03 -2.6316627110889560e+04 +3.1629414617212504e+07 
-3.8999999999999941e+00 -5.5124732960882183e-01 +7.2675272409230782e+00 +4.3912992309247683e+00 -2.9232161656962909e+01 -3.4055684575471696e+03 -2.6245450898276758e+04 +3.0935529854530010e+07 
-3.9499999999999940e+00 -5.5127587550418222e-01 +7.2689399976522049e+00 +4.3571039753752210e+00 -2.8970306528941720e+01 -3.2827159962583805e+03 -2.5952625044349730e+04 +3.0222163745499797e+07 
-3.9999999999999938e+00 -5.5130469641498814e-01 +7.2703673226011567e+00 +4.3226352485113804e+00 -2.8749834931679594e+01 -3.1570674459214815e+03 -2.5427796896171367e+04 +2.9488477796180237e+07 
-4.0499999999999936e+00 -5.5133379015080974e-01 +7.2718091159938476e+00 +4.2878972187921081e+00 -2.8572148392873739e+01 -3.0285708906551199e+03 -2.4663642623028558e+04 +2.8734006431647554e+07 
-4.0999999999999934e+00 -5.5136315396582614e-01 +7.2732651597536888e+00 +4.2529009470309420e+00 -2.8436397252868638e+01 -2.8974113337576450e+03 -2.3665524442999849e+04 +2.7959944385354843e+07 
-4.1499999999999932e+00 -5.5139278497536137e-01 +7.2747352038541599e+00 +4.2176596231206069e+00 -2.8341148343706532e+01 -2.7638405704523670e+03 -2.2442115578227222e+04 +2.7167944212339159e+07 
-4.1999999999999931e+00 -5.5142268029474772e-01 +7.2762189982696199e+00 +4.1821864386145275e+00 -2.8284968524055607e+01 -2.6281104437419472e+03 -2.1002089185755944e+04 +2.6359658808836289e+07 
-4.2499999999999929e+00 -5.5145283703931403e-01 +7.2777162929738877e+00 +4.1464945836759481e+00 -2.8266424649380944e+01 -2.4904727569502106e+03 -1.9354118375818674e+04 +2.5536740797859628e+07 
-4.2999999999999927e+00 -5.5148325232438500e-01 +7.2792268379397438e+00 +4.1105972480411497e+00 -2.8284083516742793e+01 -2.3511793056448528e+03 -1.7506876813449620e+04 +2.4700842761803143e+07 
-4.3499999999999925e+00 -5.5151392326529525e-01 +7.2807503831381801e+00 +4.0745076232762321e+00 -2.8336511854501556e+01 -2.2104819399825665e+03 -1.5469038720846473e+04 +2.3853617674513791e+07 
-4.3999999999999924e+00 -5.5154484697737960e-01 +7.2822866785421505e+00 +4.0382389005675270e+00 -2.8422276461850515e+01 -2.0686324969212014e+03 -1.3249277792863735e+04 +2.2996718411168300e+07 
-4.4499999999999922e+00 -5.5157602057596977e-01 +7.2838354741218039e+00 +4.0018042708873827e+00 -2.8539944026896290e+01 -1.9258828122709122e+03 -1.0856268644447202e+04 +2.2131797855229225e+07 
-4.4999999999999920e+00 -5.5160744117638605e-01 +7.2853965198484492e+00 +3.9652169228807659e+00 -2.8688081285227756e+01 -1.7824846591788282e+03 -8.2986855049100286e+03 +2.1260508470694147e+07 
-4.5499999999999918e+00 -5.5163910589395437e-01 +7.2869695656910096e+00 +3.9284900470637378e+00 -2.8865254868549759e+01 -1.6386898676445428e+03 -5.5852035200083255e+03 +2.0384503128168963e+07 
-4.5999999999999917e+00 -5.5167101184399059e-01 +7.2885543616163408e+00 +3.8916368314974643e+00 -2.9070031318733541e+01 -1.4947501977236593e+03 -2.7244985989645324e+03 +1.9505434215069924e+07 
-4.6499999999999915e+00 -5.5170315614184751e-01 +7.2901506575961665e+00 +3.8546704715465756e+00 -2.9300977394718469e+01 -1.3509176118114515e+03 +2.7475517061768699e+02 +1.8624955502744686e+07 
-4.6999999999999913e+00 -5.5173553590281144e-01 +7.2917582035956965e+00 +3.8176041511983483e+00 -2.9556659568855789e+01 -1.2074437713686223e+03 +3.4038812358605892e+03 +1.7744718759152763e+07 
-4.7499999999999911e+00 -5.5176814824221088e-01 +7.2933767495817978e+00 +3.7804510620304899e+00 -2.9835644381201714e+01 -1.0645805391644712e+03 +6.6542035865763391e+03 +1.6866377092927378e+07 
-4.7999999999999909e+00 -5.5180099027535912e-01 +7.2950060455192025e+00 +3.7432243931904758e+00 -3.0136498300058829e+01 -9.2257971664368506e+02 +1.0017045640130471e+04 +1.5991583221353475e+07 
-4.8499999999999908e+00 -5.5183405911755867e-01 +7.2966458413738637e+00 +3.7059373329589760e+00 -3.0457787824256545e+01 -7.8169308809456322e+02 +1.3483730970005885e+04 +1.5121989766036188e+07 
-4.8999999999999906e+00 -5.5186735188412128e-01 +7.2982958871084218e+00 +3.6686030712698594e+00 -3.0798079329387814e+01 -6.4217248180794741e+02 +1.7045582141981315e+04 +1.4259249647796761e+07 
-4.9499999999999904e+00 -5.5190086569035046e-01 +7.2999559326880981e+00 +3.6312347975003090e+00 -3.1155939298164075e+01 -5.0426971631010264e+02 +2.0693922579059552e+04 +1.3405015740025556e+07 
-4.9999999999999902e+00 -5.5193459765152997e-01 +7.3016257280723487e+00 +3.5938456980973337e+00 -3.1529933968028416e+01 -3.6823653204248785e+02 +2.4420073617224763e+04 +1.2560940392680591e+07 
-5.0499999999999901e+00 -5.5196854488294966e-01 +7.3033050232248327e+00 +3.5564489608873386e+00 -3.1918629757253825e+01 -2.3432470771978535e+02 +2.8215358064325494e+04 +1.1728676220761027e+07 
