# multipoles
# s[mm] polynom_b[n=0][T/m^n] polynom_b[n=1][T/m^n] polynom_b[n=2][T/m^n] polynom_b[n=3][T/m^n] polynom_b[n=4][T/m^n] polynom_b[n=5][T/m^n] polynom_b[n=6][T/m^n] 
-0.0000000000000000e+00 -5.5007300982069263e-01 +7.2074840377857017e+00 +5.1929257269998637e+00 -1.0166179255076578e+02 +3.3129452272312114e+03 +1.6889188011230432e+05 -1.7986331716710612e+07 
-5.0000000000000003e-02 -5.5008066062659799e-01 +7.2079488143730277e+00 +5.1798364946245776e+00 -1.0155105435003820e+02 +3.3326051105740962e+03 +1.6848879512114290e+05 -1.8037074548376665e+07 
-1.0000000000000001e-01 -5.5008868731118277e-01 +7.2084344047907400e+00 +5.1662177417665491e+00 -1.0145045907776594e+02 +3.3520145183548980e+03 +1.6817946532411562e+05 -1.8080156040679120e+07 
-1.4999999999999999e-01 -5.5009708841883742e-01 +7.2089406595134342e+00 +5.1520791110270432e+00 -1.0135919721132039e+02 +3.3711723560087980e+03 +1.6795851722170692e+05 -1.8115957791415051e+07 
-2.0000000000000001e-01 -5.5010586249401006e-01 +7.2094674290167005e+00 +5.1374302404169390e+00 -1.0127645925220268e+02 +3.3900776547949972e+03 +1.6782057755915209e+05 -1.8144862257096436e+07 
-2.5000000000000000e-01 -5.5011500808106850e-01 +7.2100145637774489e+00 +5.1222807693899117e+00 -1.0120143568711305e+02 +3.4087294054541621e+03 +1.6776027281324010e+05 -1.8167251614654303e+07 
-2.9999999999999999e-01 -5.5012452372447918e-01 +7.2105819142719723e+00 +5.1066403381851124e+00 -1.0113331697024528e+02 +3.4271265775756665e+03 +1.6777222927155736e+05 -1.8183507900907282e+07 
-3.4999999999999998e-01 -5.5013440796872481e-01 +7.2111693309790725e+00 +5.0905185866131291e+00 -1.0107129362753589e+02 +3.4452681543461067e+03 +1.6785107379826851e+05 -1.8194013251062926e+07 
-4.0000000000000002e-01 -5.5014465935822054e-01 +7.2117766643772034e+00 +5.0739251541494079e+00 -1.0101455612546727e+02 +3.4631531238165630e+03 +1.6799143271145647e+05 -1.8199149819870114e+07 
-4.5000000000000001e-01 -5.5015527643747797e-01 +7.2124037649479185e+00 +5.0568696802597533e+00 -1.0096229503954754e+02 +3.4807804780289803e+03 +1.6818793324931443e+05 -1.8199299804514464e+07 
-5.0000000000000000e-01 -5.5016625775101113e-01 +7.2130504831684918e+00 +5.0393618064643659e+00 -1.0091370073524271e+02 +3.4981491547861315e+03 +1.6843520090491092e+05 -1.8194845039598398e+07 
-5.5000000000000004e-01 -5.5017760184328923e-01 +7.2137166695219630e+00 +5.0214111690435663e+00 -1.0086796379210723e+02 +3.5152582249099546e+03 +1.6872786294702024e+05 -1.8186168229755159e+07 
-5.9999999999999998e-01 -5.5018930725892079e-01 +7.2144021744892708e+00 +5.0030274112793096e+00 -1.0082427467159982e+02 +3.5321065799933936e+03 +1.6906054564121604e+05 -1.8173650902718849e+07 
-6.5000000000000002e-01 -5.5020137254240964e-01 +7.2151068485521641e+00 +4.9842201701183004e+00 -1.0078182385323423e+02 +3.5486932759564875e+03 +1.6942787545401722e+05 -1.8157675679090217e+07 
-6.9999999999999996e-01 -5.5021379623830802e-01 +7.2158305421932116e+00 +4.9649990877356238e+00 -1.0073980181057263e+02 +3.5650172287393757e+03 +1.6982447875764771e+05 -1.8138624231647987e+07 
-7.5000000000000000e-01 -5.5022657689120824e-01 +7.2165731058976332e+00 +4.9453738018416633e+00 -1.0069739910704918e+02 +3.5810774758009588e+03 +1.7024498267122719e+05 -1.8116879063065875e+07 
-8.0000000000000004e-01 -5.5023971304570807e-01 +7.2173343901471174e+00 +4.9253539527894832e+00 -1.0065380615040047e+02 +3.5968729839118305e+03 +1.7068401309876630e+05 -1.8092822201359481e+07 
-8.4999999999999998e-01 -5.5025320324641813e-01 +7.2181142454273930e+00 +4.9049491814132180e+00 -1.0060821348176482e+02 +3.6124026997666106e+03 +1.7113619700815540e+05 -1.8066835512399580e+07 
-9.0000000000000002e-01 -5.5026704603795640e-01 +7.2189125222220749e+00 +4.8841691263909572e+00 -1.0055981153716550e+02 +3.6276656368280082e+03 +1.7159616053321073e+05 -1.8039301345599897e+07 
-9.4999999999999996e-01 -5.5028123996492395e-01 +7.2197290710167330e+00 +4.8630234262071594e+00 -1.0050779080919052e+02 +3.6426608072106978e+03 +1.7205853027150923e+05 -1.8010602020222027e+07 
-1.0000000000000000e+00 -5.5029578357203135e-01 +7.2205637422973110e+00 +4.8415217222864637e+00 -1.0045134179939167e+02 +3.6573871436880568e+03 +1.7251793294759566e+05 -1.7981119318281788e+07 
-1.0500000000000000e+00 -5.5031067540391476e-01 +7.2214163865501950e+00 +4.8196736539013978e+00 -1.0038965500220390e+02 +3.6718436397147652e+03 +1.7296899524676581e+05 -1.7951235441256359e+07 
-1.1000000000000001e+00 -5.5032591400521003e-01 +7.2222868542598206e+00 +4.7974888586841402e+00 -1.0032192080907517e+02 +3.6860293283599867e+03 +1.7340634299291330e+05 -1.7921332846708894e+07 
-1.1499999999999999e+00 -5.5034149792063891e-01 +7.2231749959137836e+00 +4.7749769767759371e+00 -1.0024732973453490e+02 +3.6999431800719112e+03 +1.7382460308137303e+05 -1.7891793582604431e+07 
-1.2000000000000000e+00 -5.5035742569490342e-01 +7.2240806619983555e+00 +4.7521476481277940e+00 -1.0016507222734460e+02 +3.7135841635482461e+03 +1.7421840191525524e+05 -1.7862999666024789e+07 
-1.2500000000000000e+00 -5.5037369587272456e-01 +7.2250037030016587e+00 +4.7290105133222751e+00 -1.0007433879581448e+02 +3.7269512312545617e+03 +1.7458236640569198e+05 -1.7835333003433090e+07 
-1.3000000000000000e+00 -5.5039030699881186e-01 +7.2259439694114898e+00 +4.7055752085815419e+00 -9.9974319910894792e+01 +3.7400434555489819e+03 +1.7491112315173517e+05 -1.7809176324478075e+07 
-1.3500000000000001e+00 -5.5040725761791076e-01 +7.2269013117130152e+00 +4.6818513744844195e+00 -9.9864205942282453e+01 +3.7528597865920597e+03 +1.7519929802510195e+05 -1.7784911513557971e+07 
-1.3999999999999999e+00 -5.5042454627475024e-01 +7.2278755803938610e+00 +4.6578486509469563e+00 -9.9743187334446361e+01 +3.7653991945523985e+03 +1.7544151750014615e+05 -1.7762920601531409e+07 
-1.4500000000000000e+00 -5.5044217151412611e-01 +7.2288666259436321e+00 +4.6335766736901070e+00 -9.9610454623524717e+01 +3.7776607603249563e+03 +1.7563240890653525e+05 -1.7743586358485829e+07 
-1.5000000000000000e+00 -5.5046013188077902e-01 +7.2298742988487419e+00 +4.6090450850888098e+00 -9.9465198186075384e+01 +3.7896433864326050e+03 +1.7576659826035763e+05 -1.7727290354110826e+07 
-1.5500000000000000e+00 -5.5047842591951135e-01 +7.2308984495962809e+00 +4.5842635225692856e+00 -9.9306608431820919e+01 +3.8013461033277081e+03 +1.7583871192045405e+05 -1.7714415001427829e+07 
-1.6000000000000001e+00 -5.5049705217511302e-01 +7.2319389286758602e+00 +4.5592416237000446e+00 -9.9133875858302304e+01 +3.8127679407162736e+03 +1.7584337699010680e+05 -1.7705342720990751e+07 
-1.6499999999999999e+00 -5.5051600919240429e-01 +7.2329955865742157e+00 +4.5339890294656353e+00 -9.8946190847685813e+01 +3.8239078351903136e+03 +1.7577521972125414e+05 -1.7700455304155454e+07 
-1.7000000000000000e+00 -5.5053529551617819e-01 +7.2340682737775603e+00 +4.5085153742975805e+00 -9.8742743751778207e+01 +3.8347648948459546e+03 +1.7562886614101526e+05 -1.7700135679262985e+07 
-1.7500000000000000e+00 -5.5055490969128573e-01 +7.2351568407757538e+00 +4.4828303004347836e+00 -9.8522725072689383e+01 +3.8453380221616385e+03 +1.7539894359225643e+05 -1.7704765407104097e+07 
-1.8000000000000000e+00 -5.5057485026252362e-01 +7.2362611380558208e+00 +4.4569434433438717e+00 -9.8285325186177630e+01 +3.8556262985461804e+03 +1.7508007842052632e+05 -1.7714727241552476e+07 
-1.8500000000000001e+00 -5.5059511577477460e-01 +7.2373810161050267e+00 +4.4308644429740438e+00 -9.8029734490983202e+01 +3.8656286788991229e+03 +1.7466689726456025e+05 -1.7730403062366929e+07 
-1.8999999999999999e+00 -5.5061570477291155e-01 +7.2385163254084839e+00 +4.4046029350256157e+00 -9.7755143288794713e+01 +3.8753442410301577e+03 +1.7415402600260696e+05 -1.7752175615784448e+07 
-1.9500000000000000e+00 -5.5063661580175127e-01 +7.2396669164568435e+00 +4.3781685579779799e+00 -9.7460742103355912e+01 +3.8847719752954017e+03 +1.7353609240194061e+05 -1.7780427004169136e+07 
-2.0000000000000000e+00 -5.5065784740620538e-01 +7.2408326397331590e+00 +4.3515709510946863e+00 -9.7145721150210250e+01 +3.8939108566051127e+03 +1.7280772175526942e+05 -1.7815539253266558e+07 
-2.0499999999999998e+00 -5.5067939791993836e-01 +7.2420133450820110e+00 +4.3248183092121391e+00 -9.6809589509823965e+01 +3.9027628398993056e+03 +1.7196547497179176e+05 -1.7857803763624549e+07 
-2.1000000000000001e+00 -5.5070126482928750e-01 +7.2432088847048162e+00 +4.2979125448868780e+00 -9.6453058494541537e+01 +3.9113470970597186e+03 +1.7101316144971023e+05 -1.7907179728000026e+07 
-2.1499999999999999e+00 -5.5072344540796492e-01 +7.2444191073046342e+00 +4.2708541636232402e+00 -9.6077129121596727e+01 +3.9196887468962664e+03 +1.6995628201711358e+05 -1.7963552488998450e+07 
-2.2000000000000002e+00 -5.5074593692978380e-01 +7.2456438615806942e+00 +4.2436436735124170e+00 -9.5682802240660379e+01 +3.9278128387676834e+03 +1.6880033608181667e+05 -1.8026806921622459e+07 
-2.2500000000000000e+00 -5.5076873666852810e-01 +7.2468829962391634e+00 +4.2162815804072729e+00 -9.5271078979125846e+01 +3.9357444849605035e+03 +1.6755082534937665e+05 -1.8096828334391866e+07 
-2.2999999999999998e+00 -5.5079184189802866e-01 +7.2481363599843247e+00 +4.1887683924360504e+00 -9.4842960386553173e+01 +3.9435087358940063e+03 +1.6621325091159201e+05 -1.8173501616776574e+07 
-2.3500000000000001e+00 -5.5081524989203845e-01 +7.2494038015162019e+00 +4.1611046168023709e+00 -9.4399447321666557e+01 +3.9511306662334523e+03 +1.6479311226598642e+05 -1.8256711818831306e+07 
-2.3999999999999999e+00 -5.5083895792439364e-01 +7.2506851695420842e+00 +4.1332907597868136e+00 -9.3941540931113323e+01 +3.9586353775899879e+03 +1.6329591124994017e+05 -1.8346344179579981e+07 
-2.4500000000000002e+00 -5.5086296326890682e-01 +7.2519803127634681e+00 +4.1053273314786036e+00 -9.3470242131105095e+01 +3.9660478692339943e+03 +1.6172714786901354e+05 -1.8442283247336309e+07 
-2.5000000000000000e+00 -5.5088726319943204e-01 +7.2532890798852598e+00 +4.0772148343928114e+00 -9.2986551964223082e+01 +3.9733933453657000e+03 +1.6009232311947874e+05 -1.8544414959148891e+07 
-2.5499999999999998e+00 -5.5091185498980233e-01 +7.2546113196110049e+00 +4.0489537799149184e+00 -9.2491471402420203e+01 +3.9806967715785659e+03 +1.5839693738498303e+05 -1.8652623640357431e+07 
-2.6000000000000001e+00 -5.5093673591382508e-01 +7.2559468806468725e+00 +4.0205446735264054e+00 -9.1986001529660641e+01 +3.9879832723003947e+03 +1.5664649201355572e+05 -1.8766794684687097e+07 
-2.6499999999999999e+00 -5.5096190324541461e-01 +7.2572956116965655e+00 +3.9919880246413033e+00 -9.1471143316930153e+01 +3.9952778711856863e+03 +1.5484648736362261e+05 -1.8886812829960328e+07 
-2.7000000000000002e+00 -5.5098735425836598e-01 +7.2586573614668506e+00 +3.9632843394137405e+00 -9.0947897863381215e+01 +4.0026056741721518e+03 +1.5300242489189352e+05 -1.9012563344167415e+07 
-2.7500000000000000e+00 -5.5101308622656653e-01 +7.2600319786580849e+00 +3.9344341247286145e+00 -9.0417265982557311e+01 +4.0099917756388963e+03 +1.5111980361090283e+05 -1.9143931448139105e+07 
-2.7999999999999998e+00 -5.5103909642392834e-01 +7.2614193119819568e+00 +3.9054378912108225e+00 -8.9880248967638636e+01 +4.0174611648617974e+03 +1.4920412652979628e+05 -1.9280801636062484e+07 
-2.8500000000000001e+00 -5.5106538212426259e-01 +7.2628192101413855e+00 +3.8762961447585309e+00 -8.9337847734159467e+01 +4.0250389597768690e+03 +1.4726089350887077e+05 -1.9423059274911057e+07 
-2.8999999999999999e+00 -5.5109194060147892e-01 +7.2642315218409994e+00 +3.8470093932743215e+00 -8.8791063265393348e+01 +4.0327502301548002e+03 +1.4529560493704208e+05 -1.9570589426442903e+07 
-2.9500000000000002e+00 -5.5111876912947111e-01 +7.2656560957885157e+00 +3.8175781461539242e+00 -8.8240896668884034e+01 +4.0406200019079761e+03 +1.4331376220968197e+05 -1.9723276844088957e+07 
-3.0000000000000000e+00 -5.5114586498212204e-01 +7.2670927806901364e+00 +3.7880029098604258e+00 -8.7688348986549585e+01 +4.0486733821548432e+03 +1.4132086617116150e+05 -1.9881006833960745e+07 
-3.0499999999999998e+00 -5.5117322543331992e-01 +7.2685414252527609e+00 +3.7582841951362691e+00 -8.7134421276625730e+01 +4.0569353709187212e+03 +1.3932241773438698e+05 -2.0043664012546968e+07 
-3.1000000000000001e+00 -5.5120084775700151e-01 +7.2700018781825175e+00 +3.7284225074751447e+00 -8.6580114577069679e+01 +4.0654310995154583e+03 +1.3732391767839016e+05 -2.0211133839584626e+07 
-3.1499999999999999e+00 -5.5122872922706756e-01 +7.2714739881867203e+00 +3.6984183586372472e+00 -8.6026429953337100e+01 +4.0741855406141772e+03 +1.3533086691226903e+05 -2.0383300743789941e+07 
-3.2000000000000002e+00 -5.5125686711742239e-01 +7.2729576039745103e+00 +3.6682722559330667e+00 -8.5474368559667880e+01 +4.0832237837476005e+03 +1.3334876711646307e+05 -2.0560049928543676e+07 
-3.2500000000000000e+00 -5.5128525870194822e-01 +7.2744525742477606e+00 +3.6379847068402253e+00 -8.4924931229394346e+01 +4.0925709174909043e+03 +1.3138311721514130e+05 -2.0741266604817856e+07 
-3.2999999999999998e+00 -5.5131390125460888e-01 +7.2759587477210221e+00 +3.6075562226547344e+00 -8.4379119326066686e+01 +4.1022519324712457e+03 +1.2943942051095211e+05 -2.0926835336527765e+07 
-3.3500000000000001e+00 -5.5134279204934988e-01 +7.2774759730995733e+00 +3.5769873121535967e+00 -8.3837933834527021e+01 +4.1122918804210885e+03 +1.2752317717137471e+05 -2.1116641076478127e+07 
-3.3999999999999999e+00 -5.5137192836004034e-01 +7.2790040990904457e+00 +3.5462784829462528e+00 -8.3302375795379390e+01 +4.1227158560544249e+03 +1.2563988773370163e+05 -2.1310569108672373e+07 
-3.4500000000000002e+00 -5.5140130746065164e-01 +7.2805429744025743e+00 +3.5154302465751588e+00 -8.2773446325077998e+01 +4.1335488448592560e+03 +1.2379505331755950e+05 -2.1508503963364273e+07 
-3.5000000000000000e+00 -5.5143092662511628e-01 +7.2820924477468907e+00 +3.4844431122988158e+00 -8.2252146648987434e+01 +4.1448158952528747e+03 +1.2199417601070597e+05 -2.1710330603349719e+07 
-3.5499999999999998e+00 -5.5146078312737079e-01 +7.2836523678301379e+00 +3.4533175894335284e+00 -8.1739477769829904e+01 +4.1565420569239313e+03 +1.2024275582935706e+05 -2.1915934006816365e+07 
-3.6000000000000001e+00 -5.5149087424138399e-01 +7.2852225833621462e+00 +3.4220541878574959e+00 -8.1236440861698725e+01 +4.1687523691626866e+03 +1.1854629433910035e+05 -2.2125199097576745e+07 
-3.6499999999999999e+00 -5.5152119724102810e-01 +7.2868029430513293e+00 +3.3906534189713695e+00 -8.0744037010165258e+01 +4.1814718293202941e+03 +1.1691029222573439e+05 -2.2338010513056785e+07 
-3.6999999999999900e+00 -5.5155174940032103e-01 +7.2883932956102511e+00 +3.3591157917452112e+00 -8.0263267481670681e+01 +4.1947255017510734e+03 +1.1534025163120878e+05 -2.2554253345338494e+07 
-3.7499999999999898e+00 -5.5158252799319163e-01 +7.2899934897448713e+00 +3.3274418174533675e+00 -7.9795133263012360e+01 +4.2085383937711358e+03 +1.1384167234179402e+05 -2.2773812318207663e+07 
-3.7999999999999901e+00 -5.5161353029357130e-01 +7.2916033741687762e+00 +3.2956320078724866e+00 -7.9340635667231012e+01 +4.2229355012309616e+03 +1.1242005682423971e+05 -2.2996572086069129e+07 
-3.8499999999999899e+00 -5.5164475357545650e-01 +7.2932227975894897e+00 +3.2636868724741683e+00 -7.8900775746043792e+01 +4.2379418799120485e+03 +1.1108090528213955e+05 -2.3222417694677602e+07 
-3.8999999999999901e+00 -5.5167619511275279e-01 +7.2948516087200677e+00 +3.2316069224780710e+00 -7.8476554776522320e+01 +4.2535825494666451e+03 +1.0982971972156380e+05 -2.3451233989456307e+07 
-3.9499999999999900e+00 -5.5170785217947471e-01 +7.2964896562691015e+00 +3.1993926703199027e+00 -7.8068973866086395e+01 +4.2698824917911297e+03 +1.0867200074076161e+05 -2.3682905536564376e+07 
-3.9999999999999898e+00 -5.5173972204953026e-01 +7.2981367889506403e+00 +3.1670446280297155e+00 -7.7679034338436381e+01 +4.2868667051196135e+03 +1.0761325065902347e+05 -2.3917317029706523e+07 
-4.0499999999999901e+00 -5.5177180197883557e-01 +7.2997928456040535e+00 +3.1345642044759949e+00 -7.7307493262048638e+01 +4.3045506583284487e+03 +1.0665768015399585e+05 -2.4154329106889181e+07 
-4.0999999999999899e+00 -5.5180408915085788e-01 +7.3014576244789238e+00 +3.1019568939138487e+00 -7.6954169282134856e+01 +4.3228999571883287e+03 +1.0580464497713251e+05 -2.4393646420591496e+07 
-4.1499999999999897e+00 -5.5183658073080832e-01 +7.3031309133740949e+00 +3.0692293417838497e+00 -7.6618655671751284e+01 +4.3418648839641037e+03 +1.0505236593267841e+05 -2.4634920406777442e+07 
-4.1999999999999904e+00 -5.5186927388406248e-01 +7.3048125000933384e+00 +3.0363881944581732e+00 -7.6300545946214683e+01 +4.3613956958108538e+03 +1.0439906587841705e+05 -2.4877802327678591e+07 
-4.2499999999999902e+00 -5.5190216577587092e-01 +7.3065021724381456e+00 +3.0034400958525707e+00 -7.5999433524016609e+01 +4.3814427144084111e+03 +1.0384296681810037e+05 -2.5121943877450820e+07 
-4.2999999999999901e+00 -5.5193525357152373e-01 +7.3081997182106333e+00 +2.9703916920798843e+00 -7.5714911863070014e+01 +4.4019562064402253e+03 +1.0338229106670218e+05 -2.5366996395125851e+07 
-4.3499999999999899e+00 -5.5196853443630089e-01 +7.3099049252085537e+00 +2.9372496288603096e+00 -7.5446574255695495e+01 +4.4228864421488233e+03 +1.0301525955615377e+05 -2.5612611218013287e+07 
-4.3999999999999897e+00 -5.5200200553545764e-01 +7.3116175812350921e+00 +2.9040205524044365e+00 -7.5194014239564510e+01 +4.4441836817740968e+03 +1.0274009527146709e+05 -2.5858439628254648e+07 
-4.4499999999999904e+00 -5.5203566403430548e-01 +7.3133374740873434e+00 +2.8707111055859822e+00 -7.4956825100092644e+01 +4.4657982745462932e+03 +1.0255501901841513e+05 -2.6104133507618710e+07 
-4.4999999999999902e+00 -5.5206950709810321e-01 +7.3150643915688320e+00 +2.8373279367989088e+00 -7.4734600412445232e+01 +4.4876804189906952e+03 +1.0245825403862214e+05 -2.6349343711621776e+07 
-4.5499999999999901e+00 -5.5210353189206685e-01 +7.3167981214749469e+00 +2.8038776880005720e+00 -7.4526933422682177e+01 +4.5097804848120668e+03 +1.0244802079931773e+05 -2.6593722246312194e+07 
-4.5999999999999899e+00 -5.5213773558151225e-01 +7.3185384516041072e+00 +2.7703670095748825e+00 -7.4333417534294910e+01 +4.5320486185980180e+03 +1.0252254111775568e+05 -2.6836919625189815e+07 
-4.6499999999999897e+00 -5.5217211533166233e-01 +7.3202851697576490e+00 +2.7368025417797663e+00 -7.4153646262166006e+01 +4.5544352342017901e+03 +1.0268003760629481e+05 -2.7078588146879368e+07 
-4.6999999999999904e+00 -5.5220666830781451e-01 +7.3220380637296349e+00 +2.7031909336556574e+00 -7.3987212860416349e+01 +4.5768905120882519e+03 +1.0291873080657661e+05 -2.7318378547229744e+07 
-4.7499999999999902e+00 -5.5224139167514563e-01 +7.3237969213206737e+00 +2.6695388285869046e+00 -7.3833710858032859e+01 +4.5993647806062982e+03 +1.0323684346158350e+05 -2.7555942544890810e+07 
-4.7999999999999901e+00 -5.5227628259892492e-01 +7.3255615303242294e+00 +2.6358528732468169e+00 -7.3692733508326782e+01 +4.6218082765903537e+03 +1.0363259602233050e+05 -2.7790931229707006e+07 
-4.8499999999999899e+00 -5.5231133824435374e-01 +7.3273316785406539e+00 +2.6021397121921734e+00 -7.3563874365617664e+01 +4.6441713015825890e+03 +1.0410421140577117e+05 -2.8022996160289701e+07 
-4.8999999999999897e+00 -5.5234655577674119e-01 +7.3291071537620951e+00 +2.5684059918466904e+00 -7.3446726672158334e+01 +4.6664040979528399e+03 +1.0464990995004804e+05 -2.8251788460834909e+07 
-4.9499999999999904e+00 -5.5238193236119659e-01 +7.3308877437846673e+00 +2.5346583577081736e+00 -7.3340883843982013e+01 +4.6884569325332814e+03 +1.0526791339861120e+05 -2.8476959422232706e+07 
-4.9999999999999902e+00 -5.5241746516300372e-01 +7.3326732364023961e+00 +2.5009034537783088e+00 -7.3245939229563447e+01 +4.7102801164322309e+03 +1.0595644289179072e+05 -2.8698160650178626e+07 
-5.0499999999999901e+00 -5.5245315134966844e-01 +7.3344634102993416e+00 +2.4671483839416215e+00 -7.3161494405466073e+01 +4.7318238937896240e+03 +1.0671371621030378e+05 -2.8915042934593186e+07 
