# field on trajectory
# s[mm] rx[mm] ry[mm] rz[mm] bx[T] by[T] bz[T]
0.0000000000000000e+00 +8.5269999999999992e+00 +0.0000000000000000e+00 +0.0000000000000000e+00 -3.0749003525652161e-02 -5.5192395963363738e-01 +5.6494812503769922e-03
5.0000000000000003e-02 +8.5269999311447400e+00 +0.0000000000000000e+00 +4.9999999999936789e-02 -3.0748666929122464e-02 -5.5192246837963010e-01 +5.6482941794572146e-03
1.0000000000000001e-01 +8.5269997245791913e+00 +0.0000000000000000e+00 +9.9999999999494299e-02 -3.0748350031599425e-02 -5.5192137928061713e-01 +5.6471048300696372e-03
1.5000000000000002e-01 +8.5269993803036250e+00 +0.0000000000000000e+00 +1.4999999999829322e-01 -3.0748053008753967e-02 -5.5192069163415824e-01 +5.6459133725079306e-03
2.0000000000000001e-01 +8.5269988983182134e+00 +0.0000000000000000e+00 +1.9999999999595433e-01 -3.0747776036258497e-02 -5.5192040473783222e-01 +5.6447199770657281e-03
2.5000000000000000e-01 +8.5269982786230294e+00 +0.0000000000000000e+00 +2.4999999999209832e-01 -3.0747519289786765e-02 -5.5192051788923480e-01 +5.6435248140366242e-03
2.9999999999999999e-01 +8.5269975212180427e+00 +0.0000000000000000e+00 +2.9999999998634591e-01 -3.0747282945014054e-02 -5.5192103038598161e-01 +5.6423280537142096e-03
3.4999999999999998e-01 +8.5269966261031254e+00 +0.0000000000000000e+00 +3.4999999997831782e-01 -3.0747067177617032e-02 -5.5192194152570484e-01 +5.6411298663920752e-03
3.9999999999999997e-01 +8.5269955932780519e+00 +0.0000000000000000e+00 +3.9999999996763475e-01 -3.0746872163273792e-02 -5.5192325060605563e-01 +5.6399304223638249e-03
4.4999999999999996e-01 +8.5269944227424954e+00 +0.0000000000000000e+00 +4.4999999995391737e-01 -3.0746698077663864e-02 -5.5192495692470245e-01 +5.6387298919230956e-03
4.9999999999999994e-01 +8.5269931144960296e+00 +0.0000000000000000e+00 +4.9999999993678645e-01 -3.0746545096468191e-02 -5.5192705977933321e-01 +5.6375284453635760e-03
5.4999999999999993e-01 +8.5269916685381286e+00 +0.0000000000000000e+00 +5.4999999991586268e-01 -3.0746413395369120e-02 -5.5192955846765201e-01 +5.6363262529790211e-03
5.9999999999999998e-01 +8.5269900848681708e+00 +0.0000000000000000e+00 +5.9999999989076680e-01 -3.0746303150050461e-02 -5.5193245228738286e-01 +5.6351234850632575e-03
6.5000000000000002e-01 +8.5269883634854331e+00 +0.0000000000000000e+00 +6.4999999986111945e-01 -3.0746214536197358e-02 -5.5193574053626604e-01 +5.6339203119102083e-03
7.0000000000000007e-01 +8.5269865043890949e+00 +0.0000000000000000e+00 +6.9999999982654126e-01 -3.0746147729496444e-02 -5.5193942251206130e-01 +5.6327169038139120e-03
7.5000000000000011e-01 +8.5269845075782378e+00 +0.0000000000000000e+00 +7.4999999978665288e-01 -3.0746102905635678e-02 -5.5194349751254490e-01 +5.6315134310685241e-03
8.0000000000000016e-01 +8.5269823730518457e+00 +0.0000000000000000e+00 +7.9999999974107505e-01 -3.0746080240304497e-02 -5.5194796483551256e-01 +5.6303100639683492e-03
8.5000000000000020e-01 +8.5269801008088031e+00 +0.0000000000000000e+00 +8.4999999968942830e-01 -3.0746079909193660e-02 -5.5195282377877664e-01 +5.6291069728078404e-03
9.0000000000000024e-01 +8.5269776908478985e+00 +0.0000000000000000e+00 +8.9999999963133337e-01 -3.0746102087995403e-02 -5.5195807364016869e-01 +5.6279043278816311e-03
9.5000000000000029e-01 +8.5269751431678227e+00 +0.0000000000000000e+00 +9.4999999956641079e-01 -3.0746146952403276e-02 -5.5196371371753661e-01 +5.6267022994845369e-03
1.0000000000000002e+00 +8.5269724577671671e+00 +0.0000000000000000e+00 +9.9999999949428120e-01 -3.0746214678112262e-02 -5.5196974330874771e-01 +5.6255010579115746e-03
1.0500000000000003e+00 +8.5269696346444270e+00 +0.0000000000000000e+00 +1.0499999994145652e+00 -3.0746305440818716e-02 -5.5197616171168562e-01 +5.6243007734579830e-03
1.1000000000000003e+00 +8.5269666737980021e+00 +0.0000000000000000e+00 +1.0999999993268832e+00 -3.0746419416220371e-02 -5.5198296822425319e-01 +5.6231016164192257e-03
1.1500000000000004e+00 +8.5269635752261941e+00 +0.0000000000000000e+00 +1.1499999992308558e+00 -3.0746556780016351e-02 -5.5199016214437058e-01 +5.6219037570910332e-03
1.2000000000000004e+00 +8.5269603389272071e+00 +0.0000000000000000e+00 +1.1999999991261037e+00 -3.0746717707907146e-02 -5.5199774276997526e-01 +5.6207073657693826e-03
1.2500000000000004e+00 +8.5269569648991510e+00 +0.0000000000000000e+00 +1.2499999990122472e+00 -3.0746902375594600e-02 -5.5200570939902305e-01 +5.6195126127505379e-03
1.3000000000000005e+00 +8.5269534531400382e+00 +0.0000000000000000e+00 +1.2999999988889068e+00 -3.0747110958781985e-02 -5.5201406132948760e-01 +5.6183196683310616e-03
1.3500000000000005e+00 +8.5269498036477831e+00 +0.0000000000000000e+00 +1.3499999987557030e+00 -3.0747343633173864e-02 -5.5202279785935959e-01 +5.6171287028078205e-03
1.4000000000000006e+00 +8.5269460164202062e+00 +0.0000000000000000e+00 +1.3999999986122562e+00 -3.0747600574476196e-02 -5.5203191828664833e-01 +5.6159398864780120e-03
1.4500000000000006e+00 +8.5269420914550338e+00 +0.0000000000000000e+00 +1.4499999984581868e+00 -3.0747881958396325e-02 -5.5204142190938021e-01 +5.6147533896391743e-03
1.5000000000000007e+00 +8.5269380287498926e+00 +0.0000000000000000e+00 +1.4999999982931154e+00 -3.0748187960642905e-02 -5.5205130802559921e-01 +5.6135693825892031e-03
1.5500000000000007e+00 +8.5269338283023171e+00 +0.0000000000000000e+00 +1.5499999981166619e+00 -3.0748518756925972e-02 -5.5206157593336791e-01 +5.6123880356263606e-03
1.6000000000000008e+00 +8.5269294901097457e+00 +0.0000000000000000e+00 +1.5999999979284469e+00 -3.0748874522956892e-02 -5.5207222493076535e-01 +5.6112095190493138e-03
1.6500000000000008e+00 +8.5269250141695210e+00 +0.0000000000000000e+00 +1.6499999977280908e+00 -3.0749255434448383e-02 -5.5208325431588878e-01 +5.6100340031571098e-03
1.7000000000000008e+00 +8.5269204004788897e+00 +0.0000000000000000e+00 +1.6999999975152136e+00 -3.0749661667114538e-02 -5.5209466338685331e-01 +5.6088616582492352e-03
1.7500000000000009e+00 +8.5269156490350078e+00 +0.0000000000000000e+00 +1.7499999972894356e+00 -3.0750093396670727e-02 -5.5210645144179082e-01 +5.6076926546255986e-03
1.8000000000000009e+00 +8.5269107598349319e+00 +0.0000000000000000e+00 +1.7999999970503771e+00 -3.0750550798833716e-02 -5.5211861777885174e-01 +5.6065271625865632e-03
1.8500000000000010e+00 +8.5269057328756279e+00 +0.0000000000000000e+00 +1.8499999967976581e+00 -3.0751034049321564e-02 -5.5213116169620335e-01 +5.6053653524329589e-03
1.9000000000000010e+00 +8.5269005681539642e+00 +0.0000000000000000e+00 +1.8999999965308989e+00 -3.0751543323853679e-02 -5.5214408249203073e-01 +5.6042073944660917e-03
1.9500000000000011e+00 +8.5268952656667185e+00 +0.0000000000000000e+00 +1.9499999962497194e+00 -3.0752078798150794e-02 -5.5215737946453658e-01 +5.6030534589877699e-03
2.0000000000000009e+00 +8.5268898254105725e+00 +0.0000000000000000e+00 +1.9999999959537398e+00 -3.0752640647934953e-02 -5.5217105191194082e-01 +5.6019037163003074e-03
2.0500000000000007e+00 +8.5268842473821156e+00 +0.0000000000000000e+00 +2.0499999956425801e+00 -3.0753228989062673e-02 -5.5218509887287726e-01 +5.6007583296092079e-03
2.1000000000000005e+00 +8.5268785315778430e+00 +0.0000000000000000e+00 +2.0999999953158599e+00 -3.0753843697924083e-02 -5.5219951834758041e-01 +5.5996174337311824e-03
2.1500000000000004e+00 +8.5268726779941559e+00 +0.0000000000000000e+00 +2.1499999949731996e+00 -3.0754484591043140e-02 -5.5221430807669369e-01 +5.5984811563861694e-03
2.2000000000000002e+00 +8.5268666866273648e+00 +0.0000000000000000e+00 +2.1999999946142190e+00 -3.0755151484944458e-02 -5.5222946580087473e-01 +5.5973496252947411e-03
2.2500000000000000e+00 +8.5268605574736878e+00 +0.0000000000000000e+00 +2.2499999942385380e+00 -3.0755844196153244e-02 -5.5224498926079291e-01 +5.5962229681780894e-03
2.2999999999999998e+00 +8.5268542905292524e+00 +0.0000000000000000e+00 +2.2999999938457765e+00 -3.0756562541195256e-02 -5.5226087619713016e-01 +5.5951013127580581e-03
2.3499999999999996e+00 +8.5268478857900938e+00 +0.0000000000000000e+00 +2.3499999934355538e+00 -3.0757306336596797e-02 -5.5227712435058107e-01 +5.5939847867571540e-03
2.3999999999999995e+00 +8.5268413432521584e+00 +0.0000000000000000e+00 +2.3999999930074898e+00 -3.0758075398884629e-02 -5.5229373146185123e-01 +5.5928735178985669e-03
2.4499999999999993e+00 +8.5268346629113019e+00 +0.0000000000000000e+00 +2.4499999925612044e+00 -3.0758869544585954e-02 -5.5231069527165888e-01 +5.5917676339061950e-03
2.4999999999999991e+00 +8.5268278447632930e+00 +0.0000000000000000e+00 +2.4999999920963170e+00 -3.0759688590228370e-02 -5.5232801352073280e-01 +5.5906672625046436e-03
2.5499999999999989e+00 +8.5268208888038100e+00 +0.0000000000000000e+00 +2.5499999916124474e+00 -3.0760532352339852e-02 -5.5234568394981332e-01 +5.5895725314192629e-03
2.5999999999999988e+00 +8.5268137950284437e+00 +0.0000000000000000e+00 +2.5999999911092151e+00 -3.0761400647448679e-02 -5.5236370429965143e-01 +5.5884835683761534e-03
2.6499999999999986e+00 +8.5268065634326984e+00 +0.0000000000000000e+00 +2.6499999905862395e+00 -3.0762293292083406e-02 -5.5238207231100855e-01 +5.5874005011021903e-03
2.6999999999999984e+00 +8.5267991940119909e+00 +0.0000000000000000e+00 +2.6999999900431400e+00 -3.0763210102772817e-02 -5.5240078572465645e-01 +5.5863234573250327e-03
2.7499999999999982e+00 +8.5267916867616531e+00 +0.0000000000000000e+00 +2.7499999894795359e+00 -3.0764150896045908e-02 -5.5241984228137719e-01 +5.5852525647731490e-03
2.7999999999999980e+00 +8.5267840416769296e+00 +0.0000000000000000e+00 +2.7999999888950469e+00 -3.0765115488431839e-02 -5.5243923972196252e-01 +5.5841879511758369e-03
2.8499999999999979e+00 +8.5267762587529798e+00 +0.0000000000000000e+00 +2.8499999882892921e+00 -3.0766103696459841e-02 -5.5245897578721270e-01 +5.5831297442632223e-03
2.8999999999999977e+00 +8.5267683379848815e+00 +0.0000000000000000e+00 +2.8999999876618907e+00 -3.0767115336659261e-02 -5.5247904821793870e-01 +5.5820780717663124e-03
2.9499999999999975e+00 +8.5267602793676254e+00 +0.0000000000000000e+00 +2.9499999870124616e+00 -3.0768150225559468e-02 -5.5249945475495932e-01 +5.5810330614169713e-03
2.9999999999999973e+00 +8.5267520828961185e+00 +0.0000000000000000e+00 +2.9999999863406241e+00 -3.0769208179689821e-02 -5.5252019313910239e-01 +5.5799948409479697e-03
3.0499999999999972e+00 +8.5267437485651882e+00 +0.0000000000000000e+00 +3.0499999856459974e+00 -3.0770289015579627e-02 -5.5254126111120438e-01 +5.5789635380929853e-03
3.0999999999999970e+00 +8.5267352763695783e+00 +0.0000000000000000e+00 +3.0999999849282007e+00 -3.0771392549758116e-02 -5.5256265641210933e-01 +5.5779392805866308e-03
3.1499999999999968e+00 +8.5267266663039489e+00 +0.0000000000000000e+00 +3.1499999841868527e+00 -3.0772518598754382e-02 -5.5258437678266992e-01 +5.5769221961644655e-03
3.1999999999999966e+00 +8.5267179183628823e+00 +0.0000000000000000e+00 +3.1999999834215722e+00 -3.0773666979097346e-02 -5.5260641996374560e-01 +5.5759124125630130e-03
3.2499999999999964e+00 +8.5267090325408788e+00 +0.0000000000000000e+00 +3.2499999826319779e+00 -3.0774837507315737e-02 -5.5262878369620350e-01 +5.5749100575197786e-03
3.2999999999999963e+00 +8.5267000088323570e+00 +0.0000000000000000e+00 +3.2999999818176891e+00 -3.0776029999938021e-02 -5.5265146572091783e-01 +5.5739152587732758e-03
3.3499999999999961e+00 +8.5266908472316576e+00 +0.0000000000000000e+00 +3.3499999809783239e+00 -3.0777244273492373e-02 -5.5267446377876972e-01 +5.5729281440630276e-03
3.3999999999999959e+00 +8.5266815477330447e+00 +0.0000000000000000e+00 +3.3999999801135012e+00 -3.0778480144506667e-02 -5.5269777561064681e-01 +5.5719488411296028e-03
3.4499999999999957e+00 +8.5266721103306988e+00 +0.0000000000000000e+00 +3.4499999792228397e+00 -3.0779737429508330e-02 -5.5272139895744243e-01 +5.5709774777146183e-03
3.4999999999999956e+00 +8.5266625350187280e+00 +0.0000000000000000e+00 +3.4999999783059579e+00 -3.0781015945024456e-02 -5.5274533156005634e-01 +5.5700141815607594e-03
3.5499999999999954e+00 +8.5266528217911599e+00 +0.0000000000000000e+00 +3.5499999773624742e+00 -3.0782315507581658e-02 -5.5276957115939407e-01 +5.5690590804118121e-03
3.5999999999999952e+00 +8.5266429706419480e+00 +0.0000000000000000e+00 +3.5999999763920068e+00 -3.0783635933706050e-02 -5.5279411549636692e-01 +5.5681123020126580e-03
3.6499999999999950e+00 +8.5266329815649673e+00 +0.0000000000000000e+00 +3.6499999753941745e+00 -3.0784977039923205e-02 -5.5281896231188998e-01 +5.5671739741093114e-03
3.6999999999999948e+00 +8.5266228545540184e+00 +0.0000000000000000e+00 +3.6999999743685952e+00 -3.0786338642758159e-02 -5.5284410934688510e-01 +5.5662442244489253e-03
3.7499999999999947e+00 +8.5266125896028271e+00 +0.0000000000000000e+00 +3.7499999733148872e+00 -3.0787720558735278e-02 -5.5286955434227714e-01 +5.5653231807798135e-03
3.7999999999999945e+00 +8.5266021867050448e+00 +0.0000000000000000e+00 +3.7999999722326687e+00 -3.0789122604378348e-02 -5.5289529503899693e-01 +5.5644109708514709e-03
3.8499999999999943e+00 +8.5265916458542481e+00 +0.0000000000000000e+00 +3.8499999711215573e+00 -3.0790544596210383e-02 -5.5292132917797765e-01 +5.5635077224145844e-03
3.8999999999999941e+00 +8.5265809670439427e+00 +0.0000000000000000e+00 +3.8999999699811716e+00 -3.0791986350753704e-02 -5.5294765450015759e-01 +5.5626135632210558e-03
3.9499999999999940e+00 +8.5265701502675597e+00 +0.0000000000000000e+00 +3.9499999688111291e+00 -3.0793447684529837e-02 -5.5297426874647804e-01 +5.5617286210240145e-03
3.9999999999999938e+00 +8.5265591955184590e+00 +0.0000000000000000e+00 +3.9999999676110480e+00 -3.0794928414059519e-02 -5.5300116965788393e-01 +5.5608530235778438e-03
4.0499999999999936e+00 +8.5265481027899277e+00 +0.0000000000000000e+00 +4.0499999663805459e+00 -3.0796428361024225e-02 -5.5302835487789237e-01 +5.5599868943418751e-03
4.0999999999999934e+00 +8.5265368720751837e+00 +0.0000000000000000e+00 +4.0999999651192409e+00 -3.0797947367751533e-02 -5.5305582166030087e-01 +5.5591303395911571e-03
4.1499999999999932e+00 +8.5265255033673739e+00 +0.0000000000000000e+00 +4.1499999638267502e+00 -3.0799485281731161e-02 -5.5308356716147955e-01 +5.5582834613050400e-03
4.1999999999999931e+00 +8.5265139966595758e+00 +0.0000000000000000e+00 +4.1999999625026909e+00 -3.0801041950453318e-02 -5.5311158853780162e-01 +5.5574463614634414e-03
4.2499999999999929e+00 +8.5265023519447976e+00 +0.0000000000000000e+00 +4.2499999611466812e+00 -3.0802617221408798e-02 -5.5313988294564298e-01 +5.5566191420468427e-03
4.2999999999999927e+00 +8.5264905692159800e+00 +0.0000000000000000e+00 +4.2999999597583383e+00 -3.0804210942088964e-02 -5.5316844754138139e-01 +5.5558019050362751e-03
4.3499999999999925e+00 +8.5264786484659965e+00 +0.0000000000000000e+00 +4.3499999583372793e+00 -3.0805822959985758e-02 -5.5319727948139785e-01 +5.5549947524133336e-03
4.3999999999999924e+00 +8.5264665896876526e+00 +0.0000000000000000e+00 +4.3999999568831223e+00 -3.0807453122591671e-02 -5.5322637592207546e-01 +5.5541977861601538e-03
4.4499999999999922e+00 +8.5264543928736884e+00 +0.0000000000000000e+00 +4.4499999553954837e+00 -3.0809101277399817e-02 -5.5325573401979833e-01 +5.5534111082594199e-03
4.4999999999999920e+00 +8.5264420580167801e+00 +0.0000000000000000e+00 +4.4999999538739806e+00 -3.0810767271903849e-02 -5.5328535093095288e-01 +5.5526348206943613e-03
4.5499999999999918e+00 +8.5264295851095362e+00 +0.0000000000000000e+00 +4.5499999523182302e+00 -3.0812450953598022e-02 -5.5331522381192644e-01 +5.5518690254487335e-03
4.5999999999999917e+00 +8.5264169741445048e+00 +0.0000000000000000e+00 +4.5999999507278497e+00 -3.0814152169977203e-02 -5.5334534981910743e-01 +5.5511138245068299e-03
4.6499999999999915e+00 +8.5264042251141685e+00 +0.0000000000000000e+00 +4.6499999491024564e+00 -3.0815870768536834e-02 -5.5337572610888530e-01 +5.5503693198534721e-03
4.6999999999999913e+00 +8.5263913380109493e+00 +0.0000000000000000e+00 +4.6999999474416665e+00 -3.0817606596772979e-02 -5.5340634983764969e-01 +5.5496356134739954e-03
4.7499999999999911e+00 +8.5263783128272053e+00 +0.0000000000000000e+00 +4.7499999457450963e+00 -3.0819359502182307e-02 -5.5343721816179126e-01 +5.5489128073542629e-03
4.7999999999999909e+00 +8.5263651495552359e+00 +0.0000000000000000e+00 +4.7999999440123631e+00 -3.0821129332262068e-02 -5.5346832823770009e-01 +5.5482010034806481e-03
4.8499999999999908e+00 +8.5263518481872786e+00 +0.0000000000000000e+00 +4.8499999422430831e+00 -3.0822915934510173e-02 -5.5349967722176674e-01 +5.5475003038400299e-03
4.8999999999999906e+00 +8.5263384087155103e+00 +0.0000000000000000e+00 +4.8999999404368735e+00 -3.0824719156425134e-02 -5.5353126227038063e-01 +5.5468108104197965e-03
4.9499999999999904e+00 +8.5263248311320528e+00 +0.0000000000000000e+00 +4.9499999385933497e+00 -3.0826538845506100e-02 -5.5356308053993108e-01 +5.5461326252078322e-03
4.9999999999999902e+00 +8.5263111154289657e+00 +0.0000000000000000e+00 +4.9999999367121291e+00 -3.0828374849252813e-02 -5.5359512918680642e-01 +5.5454658501925200e-03
5.0499999999999901e+00 +8.5262972615982520e+00 +0.0000000000000000e+00 +5.0499999347928268e+00 -3.0830227015165690e-02 -5.5362740536739352e-01 +5.5448105873627321e-03
5.0999999999999899e+00 +8.5262832696318593e+00 +0.0000000000000000e+00 +5.0999999328350594e+00 -3.0832095190745784e-02 -5.5365990623807848e-01 +5.5441669387078308e-03
5.1499999999999897e+00 +8.5262691395216788e+00 +0.0000000000000000e+00 +5.1499999308384430e+00 -3.0833979223494772e-02 -5.5369262895524474e-01 +5.5435350062176527e-03
5.1999999999999895e+00 +8.5262548712595461e+00 +0.0000000000000000e+00 +5.1999999288025940e+00 -3.0835878960914973e-02 -5.5372557067527550e-01 +5.5429148918825213e-03
5.2499999999999893e+00 +8.5262404648372421e+00 +0.0000000000000000e+00 +5.2499999267271278e+00 -3.0837794250509403e-02 -5.5375872855455044e-01 +5.5423066976932316e-03
5.2999999999999892e+00 +8.5262259202464925e+00 +0.0000000000000000e+00 +5.2999999246116607e+00 -3.0839724939781692e-02 -5.5379209974944721e-01 +5.5417105256410359e-03
5.3499999999999890e+00 +8.5262112374789734e+00 +0.0000000000000000e+00 +5.3499999224558081e+00 -3.0841670876236141e-02 -5.5382568141634059e-01 +5.5411264777176688e-03
5.3999999999999888e+00 +8.5261964165263038e+00 +0.0000000000000000e+00 +5.3999999202591855e+00 -3.0843631907377742e-02 -5.5385947071160346e-01 +5.5405546559153147e-03
5.4499999999999886e+00 +8.5261814573800550e+00 +0.0000000000000000e+00 +5.4499999180214092e+00 -3.0845607880712129e-02 -5.5389346479160484e-01 +5.5399951622266113e-03
5.4999999999999885e+00 +8.5261663600317430e+00 +0.0000000000000000e+00 +5.4999999157420936e+00 -3.0847598643745630e-02 -5.5392766081271005e-01 +5.5394480986446504e-03
5.5499999999999883e+00 +8.5261511244728379e+00 +0.0000000000000000e+00 +5.5499999134208551e+00 -3.0849604043985242e-02 -5.5396205593128212e-01 +5.5389135671629740e-03
5.5999999999999881e+00 +8.5261357506947562e+00 +0.0000000000000000e+00 +5.5999999110573082e+00 -3.0851623928938650e-02 -5.5399664730367870e-01 +5.5383916697755572e-03
5.6499999999999879e+00 +8.5261202386888684e+00 +0.0000000000000000e+00 +5.6499999086510693e+00 -3.0853658146114227e-02 -5.5403143208625427e-01 +5.5378825084768171e-03
5.6999999999999877e+00 +8.5261045884464952e+00 +0.0000000000000000e+00 +5.6999999062017528e+00 -3.0855706543021045e-02 -5.5406640743535884e-01 +5.5373861852616064e-03
5.7499999999999876e+00 +8.5260887999589094e+00 +0.0000000000000000e+00 +5.7499999037089733e+00 -3.0857768967168867e-02 -5.5410157050733766e-01 +5.5369028021252020e-03
5.7999999999999874e+00 +8.5260728732173376e+00 +0.0000000000000000e+00 +5.7999999011723462e+00 -3.0859845266068182e-02 -5.5413691845853141e-01 +5.5364324610633090e-03
5.8499999999999872e+00 +8.5260568082129620e+00 +0.0000000000000000e+00 +5.8499998985914869e+00 -3.0861935287230143e-02 -5.5417244844527502e-01 +5.5359752640720475e-03
5.8999999999999870e+00 +8.5260406049369166e+00 +0.0000000000000000e+00 +5.8999998959660092e+00 -3.0864038878166654e-02 -5.5420815762389919e-01 +5.5355313131479509e-03
