# multipoles
# s[mm] polynom_b[n=0][T/m^n] polynom_b[n=1][T/m^n] polynom_b[n=2][T/m^n] polynom_b[n=3][T/m^n] polynom_b[n=4][T/m^n] polynom_b[n=5][T/m^n] polynom_b[n=6][T/m^n] 
+0.0000000000000000e+00 -5.5192222886914066e-01 +7.2267164850985814e+00 +6.5574250637709346e+00 -1.0688554812394730e+02 -1.3733881143928291e+04 +2.5627052795857031e+05 +9.5378666419891611e+07 
+5.0000000000000003e-02 -5.5192072847550178e-01 +7.2266966526631018e+00 +6.5636580210103821e+00 -1.0649415706547263e+02 -1.3867896153002344e+04 +2.5442125717657429e+05 +9.6107857942429155e+07 
+1.0000000000000001e-01 -5.5191963100356223e-01 +7.2266984524650537e+00 +6.5691131315850653e+00 -1.0608955215783978e+02 -1.3994301248145159e+04 +2.5251444270814277e+05 +9.6788409273958907e+07 
+1.4999999999999999e-01 -5.5191893572663420e-01 +7.2267218551276979e+00 +6.5738010911038334e+00 -1.0567252049164534e+02 -1.4113331929496315e+04 +2.5055444277980874e+05 +9.7421834652713418e+07 
+2.0000000000000001e-01 -5.5191864191814022e-01 +7.2267668312712141e+00 +6.5777326001036949e+00 -1.0524384898594761e+02 -1.4225223833907759e+04 +2.4854561413743618e+05 +9.8009649253190145e+07 
+2.5000000000000000e-01 -5.5191874885138692e-01 +7.2268333515205674e+00 +6.5809183533737263e+00 -1.0480432473035776e+02 -1.4330212436144328e+04 +2.4649231498894023e+05 +9.8553367125343293e+07 
+2.9999999999999999e-01 -5.5191925579979795e-01 +7.2269213864996074e+00 +6.5833690493322310e+00 -1.0435473473475669e+02 -1.4428533310879724e+04 +2.4439890286060967e+05 +9.9054503003135502e+07 
+3.4999999999999998e-01 -5.5192016203679406e-01 +7.2270309068328515e+00 +6.5850953831161894e+00 -1.0389586601098540e+02 -1.4520421947771445e+04 +2.4226973532010149e+05 +9.9514571056599662e+07 
+4.0000000000000002e-01 -5.5192146683576226e-01 +7.2271618831485211e+00 +6.5861080545056074e+00 -1.0342850568801455e+02 -1.4606113960370320e+04 +2.4010917091221703e+05 +9.9935086286330238e+07 
+4.5000000000000001e-01 -5.5192316947015252e-01 +7.2273142860736170e+00 +6.5864177575693121e+00 -1.0295344081706020e+02 -1.4685844810382425e+04 +2.3792156753487239e+05 +1.0031756267451902e+08 
+5.0000000000000000e-01 -5.5192526921343932e-01 +7.2274880862369448e+00 +6.5860351915773681e+00 -1.0247145850474780e+02 -1.4759850093368299e+04 +2.3571128360149724e+05 +1.0066351508168331e+08 
+5.5000000000000004e-01 -5.5192776533907273e-01 +7.2276832542645035e+00 +6.5849710535611941e+00 -1.0198334568121628e+02 -1.4828365350338438e+04 +2.3348267596172364e+05 +1.0097445802087431e+08 
+5.9999999999999998e-01 -5.5193065712058964e-01 +7.2278997607910362e+00 +6.5832360386247650e+00 -1.0148988964492074e+02 -1.4891626069687662e+04 +2.3124010463772007e+05 +1.0125190564876121e+08 
+6.5000000000000002e-01 -5.5193394383147676e-01 +7.2281375764454712e+00 +6.5808408441283852e+00 -1.0099187739657584e+02 -1.4949867799345540e+04 +2.2898792711241910e+05 +1.0149737251365849e+08 
+6.9999999999999996e-01 -5.5193762474524144e-01 +7.2283966718620514e+00 +6.5777961676124503e+00 -1.0049009613476292e+02 -1.5003326092617353e+04 +2.2673050253702895e+05 +1.0171237320526873e+08 
+7.5000000000000000e-01 -5.5194169913546121e-01 +7.2286770176719415e+00 +6.5741127067127820e+00 -9.9985332901545689e+01 -1.5052236503363785e+04 +2.2447218876031358e+05 +1.0189842230645017e+08 
+8.0000000000000004e-01 -5.5194616627569271e-01 +7.2289785845080123e+00 +6.5698011571850508e+00 -9.9478374780356248e+01 -1.5096834538674739e+04 +2.2221734398942933e+05 +1.0205703410049047e+08 
+8.4999999999999998e-01 -5.5195102543951724e-01 +7.2293013430081601e+00 +6.5648722157695056e+00 -9.8970009032372488e+01 -1.5137355726057831e+04 +2.1997032790052853e+05 +1.0218972298180914e+08 
+9.0000000000000002e-01 -5.5195627590054053e-01 +7.2296452638038593e+00 +6.5593365808774484e+00 -9.8461022624878041e+01 -1.5174035644937978e+04 +2.1773549774389432e+05 +1.0229800372281145e+08 
+9.4999999999999996e-01 -5.5196191693234131e-01 +7.2300103175350410e+00 +6.5532049475491769e+00 -9.7952202835263364e+01 -1.5207109778659702e+04 +2.1551721330725451e+05 +1.0238339042523986e+08 
+1.0000000000000000e+00 -5.5196794780861513e-01 +7.2303964748365077e+00 +6.5464880143566502e+00 -9.7444336713611023e+01 -1.5236813706782146e+04 +2.1331983253116938e+05 +1.0244739784667882e+08 
+1.0500000000000000e+00 -5.5197436780298625e-01 +7.2308037063462178e+00 +6.5391964782437286e+00 -9.6938211399939277e+01 -1.5263382962336609e+04 +2.1114771407744530e+05 +1.0249154041680259e+08 
+1.1000000000000001e+00 -5.5198117618909193e-01 +7.2312319827033145e+00 +6.5313410360161877e+00 -9.6434614057440143e+01 -1.5287053080958389e+04 +2.0900521682244391e+05 +1.0251733260826248e+08 
+1.1499999999999999e+00 -5.5198837224064046e-01 +7.2316812745468537e+00 +6.5229323837987030e+00 -9.5934331819058343e+01 -1.5308059570347083e+04 +2.0689669937134889e+05 +1.0252628866839090e+08 
+1.2000000000000000e+00 -5.5199595523133316e-01 +7.2321515525158997e+00 +6.5139812187955846e+00 -9.5438151775417936e+01 -1.5326637973247507e+04 +2.0482651993909865e+05 +1.0251992310391690e+08 
+1.2500000000000000e+00 -5.5200392443490309e-01 +7.2326427872508239e+00 +6.5044982408127554e+00 -9.4946861064398448e+01 -1.5343023900809087e+04 +2.0279903721980573e+05 +1.0249975087529476e+08 
+1.3000000000000000e+00 -5.5201227912507933e-01 +7.2331549493939562e+00 +6.4944941456580620e+00 -9.4461246852381862e+01 -1.5357452852509039e+04 +2.0081861004882172e+05 +1.0246728617432553e+08 
+1.3500000000000001e+00 -5.5202101857560393e-01 +7.2336880095843057e+00 +6.4839796291529517e+00 -9.3982096160148430e+01 -1.5370160335158511e+04 +1.9888959613070035e+05 +1.0242404327064040e+08 
+1.3999999999999999e+00 -5.5203014206023027e-01 +7.2342419384679184e+00 +6.4729653899507911e+00 -9.3510196248028407e+01 -1.5381381921526938e+04 +1.9701635506669665e+05 +1.0237153683707400e+08 
+1.4500000000000000e+00 -5.5203964885280166e-01 +7.2348167066849767e+00 +6.4614621264298711e+00 -9.3046334116758487e+01 -1.5391353184134101e+04 +1.9520324433063678e+05 +1.0231128157524732e+08 
+1.5000000000000000e+00 -5.5204953822706693e-01 +7.2354122848796809e+00 +6.4494805353778428e+00 -9.2591296911360175e+01 -1.5400309645178222e+04 +1.9345462264511216e+05 +1.0224479181578751e+08 
+1.5500000000000000e+00 -5.5205980945686317e-01 +7.2360286436961827e+00 +6.4370313130657877e+00 -9.2145871734627448e+01 -1.5408486819197005e+04 +1.9177484830439626e+05 +1.0217358186261015e+08 
+1.6000000000000001e+00 -5.5207046181604269e-01 +7.2366657537781638e+00 +6.4241251595071640e+00 -9.1710845639879508e+01 -1.5416120314920532e+04 +1.9016827918900384e+05 +1.0209916663196604e+08 
+1.6499999999999999e+00 -5.5208149457845401e-01 +7.2373235857711409e+00 +6.4107727716448526e+00 -9.1287005735904231e+01 -1.5423445662454465e+04 +1.8863927367012098e+05 +1.0202306052460898e+08 
+1.7000000000000000e+00 -5.5209290701796676e-01 +7.2380021103195915e+00 +6.3969848470925736e+00 -9.0875139052819350e+01 -1.5430698404521263e+04 +1.8719218942529976e+05 +1.0194677800339694e+08 
+1.7500000000000000e+00 -5.5210469840846643e-01 +7.2387012980709047e+00 +6.3827720834893649e+00 -9.0476032713659464e+01 -1.5438114086993104e+04 +1.8583138489841940e+05 +1.0187183356577955e+08 
+1.8000000000000000e+00 -5.5211686802384319e-01 +7.2394211196697533e+00 +6.3681451807200711e+00 -9.0090473700088310e+01 -1.5445928311134272e+04 +1.8456121735698415e+05 +1.0179974206403017e+08 
+1.8500000000000001e+00 -5.5212941513803204e-01 +7.2401615457639235e+00 +6.3531148350433009e+00 -8.9719249097805232e+01 -1.5454376584360687e+04 +1.8338604492286450e+05 +1.0173201773031466e+08 
+1.8999999999999999e+00 -5.5214233902501264e-01 +7.2409225469991432e+00 +6.3376917476034871e+00 -8.9363145879418241e+01 -1.5463694542684871e+04 +1.8231022477468022e+05 +1.0167017565442252e+08 
+1.9500000000000000e+00 -5.5215563895866493e-01 +7.2417040940246977e+00 +6.3218866126342688e+00 -8.9022951116689939e+01 -1.5474117631725363e+04 +1.8133811483413423e+05 +1.0161572962659886e+08 
+2.0000000000000000e+00 -5.5216931421300330e-01 +7.2425061574865319e+00 +6.3057101321279747e+00 -8.8699451748803028e+01 -1.5485881510736632e+04 +1.8047407204471072e+05 +1.0157019489688033e+08 
+2.0499999999999998e+00 -5.5218336380784172e-01 +7.2433286816652247e+00 +6.2891710337061859e+00 -8.8393186922675312e+01 -1.5499167643861718e+04 +1.7972093450069052e+05 +1.0153477326630796e+08 
+2.1000000000000001e+00 -5.5219778574302625e-01 +7.2441715063990308e+00 +6.2722703613080535e+00 -8.8103709544986984e+01 -1.5513945646354283e+04 +1.7907543547801179e+05 +1.0150944097481637e+08 
+2.1499999999999999e+00 -5.5221257776252697e-01 +7.2450344422191035e+00 +6.2550075103780305e+00 -8.7830332065303296e+01 -1.5530133471888068e+04 +1.7853277109837736e+05 +1.0149387591370878e+08 
+2.2000000000000002e+00 -5.5222773761036581e-01 +7.2459172996511212e+00 +6.2373818697465087e+00 -8.7572366725911053e+01 -1.5547648897862471e+04 +1.7808813587284391e+05 +1.0148775479456033e+08 
+2.2500000000000000e+00 -5.5224326303057758e-01 +7.2468198892293083e+00 +6.2193928324306711e+00 -8.7329126063393858e+01 -1.5566409811375153e+04 +1.7773672657278617e+05 +1.0149075506055778e+08 
+2.2999999999999998e+00 -5.5225915176723561e-01 +7.2477420214800770e+00 +6.2010397922253144e+00 -8.7099922292000002e+01 -1.5586334125301224e+04 +1.7747373737680184e+05 +1.0150255434488231e+08 
+2.3500000000000001e+00 -5.5227540156432475e-01 +7.2486835069390807e+00 +6.1823221383946434e+00 -8.6884067977581466e+01 -1.5607339622886049e+04 +1.7729436530634630e+05 +1.0152282937834376e+08 
+2.3999999999999999e+00 -5.5229201016593465e-01 +7.2496441561345817e+00 +6.1632392633664956e+00 -8.6680875355851796e+01 -1.5629344180236365e+04 +1.7719380460973509e+05 +1.0155125754922490e+08 
+2.4500000000000002e+00 -5.5230897531611500e-01 +7.2506237796002102e+00 +6.1437905600151685e+00 -8.6489656868574031e+01 -1.5652265686431127e+04 +1.7716725122747087e+05 +1.0158751633682021e+08 
+2.5000000000000000e+00 -5.5232629475899042e-01 +7.2516221878715275e+00 +6.1239754178209518e+00 -8.6309725020205207e+01 -1.5676021931745132e+04 +1.7720990158527484e+05 +1.0163128252734405e+08 
+2.5499999999999998e+00 -5.5234396623863558e-01 +7.2526391914817605e+00 +6.1037932300493702e+00 -8.6140392194082892e+01 -1.5700530814264712e+04 +1.7731695107796634e+05 +1.0168223365547168e+08 
+2.6000000000000001e+00 -5.5236198749912646e-01 +7.2536746009641373e+00 +6.0832433882135026e+00 -8.5980970758425173e+01 -1.5725710184205169e+04 +1.7748359496269890e+05 +1.0174004693395799e+08 
+2.6499999999999999e+00 -5.5238035628462645e-01 +7.2547282268533131e+00 +6.0623252835195514e+00 -8.5830773112974938e+01 -1.5751477884814418e+04 +1.7770502866639878e+05 +1.0180439953382947e+08 
+2.7000000000000002e+00 -5.5239907033921276e-01 +7.2557998796884675e+00 +6.0410383088649136e+00 -8.5689111833163210e+01 -1.5777751802436445e+04 +1.7797644908418940e+05 +1.0187496890526317e+08 
+2.7500000000000000e+00 -5.5241812740703555e-01 +7.2568893700030435e+00 +6.0193818544312867e+00 -8.5555299238020524e+01 -1.5804449754904490e+04 +1.7829305094109150e+05 +1.0195143205874106e+08 
+2.7999999999999998e+00 -5.5243752523226575e-01 +7.2579965083375590e+00 +5.9973553120465803e+00 -8.5428647919376957e+01 -1.5831489600446510e+04 +1.7865003116681709e+05 +1.0203346626212575e+08 
+2.8500000000000001e+00 -5.5245726155899710e-01 +7.2591211052278526e+00 +5.9749580729371328e+00 -8.5308470253020076e+01 -1.5858789187570994e+04 +1.7904258487152046e+05 +1.0212074874278265e+08 
+2.8999999999999999e+00 -5.5247733413142031e-01 +7.2602629712140923e+00 +5.9521895291925562e+00 -8.5194078791474013e+01 -1.5886266381510168e+04 +1.7946590862567120e+05 +1.0221295681717998e+08 
+2.9500000000000002e+00 -5.5249774069370028e-01 +7.2614219168343652e+00 +5.9290490716329787e+00 -8.5084785966337023e+01 -1.5913839017163857e+04 +1.7991519788937512e+05 +1.0230976761372481e+08 
+3.0000000000000000e+00 -5.5251847899000495e-01 +7.2625977526298531e+00 +5.9055360903260290e+00 -8.4979904335388156e+01 -1.5941424909515721e+04 +1.8038564919041761e+05 +1.0241085812824470e+08 
+3.0499999999999998e+00 -5.5253954676449568e-01 +7.2637902891412969e+00 +5.8816499776967595e+00 -8.4878746410176376e+01 -1.5968941942726584e+04 +1.8087245857946965e+05 +1.0251590584616402e+08 
+3.1000000000000001e+00 -5.5256094176142689e-01 +7.2649993369086125e+00 +5.8573901263727484e+00 -8.4780624663878584e+01 -1.5996307997909929e+04 +1.8137082178810544e+05 +1.0262458820180036e+08 
+3.1499999999999999e+00 -5.5258266172494919e-01 +7.2662247064747145e+00 +5.8327559240360598e+00 -8.4684851670827882e+01 -1.6023440831417900e+04 +1.8187593531496188e+05 +1.0273658182134822e+08 
+3.2000000000000002e+00 -5.5260470439927778e-01 +7.2674662083852155e+00 +5.8077467633307389e+00 -8.4590740098429279e+01 -1.6050258329187805e+04 +1.8238299636126601e+05 +1.0285156418885790e+08 
+3.2500000000000000e+00 -5.5262706752859736e-01 +7.2687236531797934e+00 +5.7823620349693963e+00 -8.4497602366599295e+01 -1.6076678326865705e+04 +1.8288720010663554e+05 +1.0296921245983557e+08 
+3.2999999999999998e+00 -5.5264974885715190e-01 +7.2699968514044659e+00 +5.7566011300066133e+00 -8.4404751133869922e+01 -1.6102618674182171e+04 +1.8338374358808345e+05 +1.0308920390274045e+08 
+3.3500000000000001e+00 -5.5267274612919126e-01 +7.2712856136038484e+00 +5.7304634387844420e+00 -8.4311498985177977e+01 -1.6127997197563231e+04 +1.8386782317996814e+05 +1.0321121561676298e+08 
+3.3999999999999999e+00 -5.5269605708889102e-01 +7.2725897503246104e+00 +5.7039483516569440e+00 -8.4217158587223125e+01 -1.6152731727645176e+04 +1.8433463594984353e+05 +1.0333492474401867e+08 
+3.4500000000000002e+00 -5.5271967948051481e-01 +7.2739090721106452e+00 +5.6770552593687880e+00 -8.4121042462622512e+01 -1.6176740104054697e+04 +1.8477937763288643e+05 +1.0346000848188782e+08 
+3.5000000000000000e+00 -5.5274361104829961e-01 +7.2752433895121049e+00 +5.6497835516073929e+00 -8.4022463405518963e+01 -1.6199940142519146e+04 +1.8519724626871088e+05 +1.0358614388840568e+08 
+3.5499999999999998e+00 -5.5276784953649749e-01 +7.2765925130738793e+00 +5.6221326197248658e+00 -8.3920733952936871e+01 -1.6222249701449582e+04 +1.8558343759896181e+05 +1.0371300830044962e+08 
+3.6000000000000001e+00 -5.5279239268938440e-01 +7.2779562533454634e+00 +5.5941018535328482e+00 -8.3815166835781184e+01 -1.6243586600710465e+04 +1.8593314897814483e+05 +1.0384027881037742e+08 
+3.6499999999999999e+00 -5.5281723825112905e-01 +7.2793344208774249e+00 +5.5656906416405239e+00 -8.3705074812365595e+01 -1.6263868626845859e+04 +1.8624157792808875e+05 +1.0396763228038004e+08 
+3.6999999999999900e+00 -5.5284238396607532e-01 +7.2807268262173803e+00 +5.5368983751287235e+00 -8.3589770512918321e+01 -1.6283013638457620e+04 +1.8650392083838946e+05 +1.0409474608275448e+08 
+3.7499999999999898e+00 -5.5286782757846620e-01 +7.2821332799167529e+00 +5.5077244444220836e+00 -8.3468566715164002e+01 -1.6300939472094284e+04 +1.8671537529813300e+05 +1.0422129742768006e+08 
+3.7999999999999901e+00 -5.5289356683254043e-01 +7.2835535925264692e+00 +5.4781682388052690e+00 -8.3340776150704002e+01 -1.6317563938718593e+04 +1.8687113837457658e+05 +1.0434696337273505e+08 
+3.8499999999999899e+00 -5.5291959947260882e-01 +7.2849875745989818e+00 +5.4482291454901723e+00 -8.3205711626810896e+01 -1.6332804792767805e+04 +1.8696640779182719e+05 +1.0447142059147024e+08 
+3.8999999999999901e+00 -5.5294592324291347e-01 +7.2864350366872097e+00 +5.4179065573935192e+00 -8.3062685936962069e+01 -1.6346579945373263e+04 +1.8699638101504210e+05 +1.0459434683187988e+08 
+3.9499999999999900e+00 -5.5297253588777273e-01 +7.2878957893431071e+00 +5.3871998616615073e+00 -8.2911011852356907e+01 -1.6358807151253055e+04 +1.8695625535069779e+05 +1.0471541878118496e+08 
+3.9999999999999898e+00 -5.5299943515141037e-01 +7.2893696431227326e+00 +5.3561084468997242e+00 -8.2750002272733482e+01 -1.6369404207753514e+04 +1.8684122905041624e+05 +1.0483431343307662e+08 
+4.0499999999999901e+00 -5.5302661867948477e-01 +7.2908564117995187e+00 +5.3246338354552698e+00 -8.2579190755119996e+01 -1.6378319234129181e+04 +1.8664806445024160e+05 +1.0495082411472662e+08 
+4.0999999999999899e+00 -5.5305408372332410e-01 +7.2923559162790745e+00 +5.2927860090512286e+00 -8.2399061604200469e+01 -1.6385611110751550e+04 +1.8638036987734406e+05 +1.0506513413095295e+08 
+4.1499999999999897e+00 -5.5308182743569201e-01 +7.2938679778321021e+00 +5.2605770736050843e+00 -8.2210355482404381e+01 -1.6391363808006285e+04 +1.8604361804118977e+05 +1.0517750527250360e+08 
+4.1999999999999904e+00 -5.5310984696950594e-01 +7.2953924177272702e+00 +5.2280191340953071e+00 -8.2013812983711716e+01 -1.6395661267448158e+04 +1.8564328099060126e+05 +1.0528819912607665e+08 
+4.2499999999999902e+00 -5.5313813947758017e-01 +7.2969290572371532e+00 +5.1951242958218957e+00 -8.1810174874677116e+01 -1.6398587442218177e+04 +1.8518483225215407e+05 +1.0539747736943859e+08 
+4.2999999999999901e+00 -5.5316670211275498e-01 +7.2984777176290105e+00 +5.1619046632765366e+00 -8.1600181717767057e+01 -1.6400226255891095e+04 +1.8467374370076953e+05 +1.0550560144878781e+08 
+4.3499999999999899e+00 -5.5319553202788163e-01 +7.3000382201733247e+00 +5.1283723430646875e+00 -8.1384574212828284e+01 -1.6400661693593975e+04 +1.8411548833398023e+05 +1.0561283324396783e+08 
+4.3999999999999897e+00 -5.5322462637578307e-01 +7.3016103861373587e+00 +5.0945394415598049e+00 -8.1164092954438033e+01 -1.6399977731514246e+04 +1.8351553837898595e+05 +1.0571943455852352e+08 
+4.4499999999999904e+00 -5.5325398230935341e-01 +7.3031940367877475e+00 +5.0604180632775009e+00 -8.0939478519063840e+01 -1.6398258296157008e+04 +1.8287936588438688e+05 +1.0582566686711358e+08 
+4.4999999999999902e+00 -5.5328359698140817e-01 +7.3047889933935819e+00 +5.0260203126681944e+00 -8.0711471603166814e+01 -1.6395587306036505e+04 +1.8221244396901430e+05 +1.0593179156044716e+08 
+4.5499999999999901e+00 -5.5331346754479305e-01 +7.3063950772201247e+00 +4.9913583001289821e+00 -8.0480812764767478e+01 -1.6392048846499441e+04 +1.8152024464193967e+05 +1.0603807118211032e+08 
+4.5999999999999899e+00 -5.5334359115236886e-01 +7.3080121095321600e+00 +4.9564441290215591e+00 -8.0248242546790550e+01 -1.6387726808351119e+04 +1.8080823976463117e+05 +1.0614476694175377e+08 
+4.6499999999999897e+00 -5.5337396495699054e-01 +7.3096399115949833e+00 +4.9212899063682229e+00 -8.0014501558466634e+01 -1.6382705177672811e+04 +1.8008190189400106e+05 +1.0625214067697261e+08 
+4.6999999999999904e+00 -5.5340458611152810e-01 +7.3112783046730208e+00 +4.8859077375588074e+00 -7.9780330367750935e+01 -1.6377067899076970e+04 +1.7934670318965067e+05 +1.0636045395391610e+08 
+4.7499999999999902e+00 -5.5343545176878339e-01 +7.3129271100275126e+00 +4.8503097301365159e+00 -7.9546469443407332e+01 -1.6370898972403809e+04 +1.7860811508383797e+05 +1.0646996870105426e+08 
+4.7999999999999901e+00 -5.5346655908164666e-01 +7.3145861489235484e+00 +4.8145079934962824e+00 -7.9313659437878158e+01 -1.6364282446362809e+04 +1.7787161058040042e+05 +1.0658094716858369e+08 
+4.8499999999999899e+00 -5.5349790520291953e-01 +7.3162552426189329e+00 +4.7785146309054269e+00 -7.9082640719767483e+01 -1.6357302202946868e+04 +1.7714266035817505e+05 +1.0669365047547881e+08 
+4.8999999999999897e+00 -5.5352948728554308e-01 +7.3179342123770059e+00 +4.7423417518822273e+00 -7.8854153912072803e+01 -1.6350042292053173e+04 +1.7642673724376652e+05 +1.0680834087153476e+08 
+4.9499999999999904e+00 -5.5356130248224755e-01 +7.3196228794562819e+00 +4.7060014622326936e+00 -7.8628939462876531e+01 -1.6342586661974288e+04 +1.7572931270110543e+05 +1.0692527990921767e+08 
+4.9999999999999902e+00 -5.5359334794596837e-01 +7.3213210651132732e+00 +4.6695058712661650e+00 -7.8407737766663772e+01 -1.6335019353675718e+04 +1.7505585778123900e+05 +1.0704472976158620e+08 
+5.0499999999999901e+00 -5.5362562083184064e-01 +7.3230285823627606e+00 +4.6328675230924228e+00 -7.8191298944753441e+01 -1.6327424309753711e+04 +1.7441185170662426e+05 +1.0716695214064348e+08 
