# multipoles
# s[mm] polynom_b[n=0][T/m^n] polynom_b[n=1][T/m^n] polynom_b[n=2][T/m^n] polynom_b[n=3][T/m^n] polynom_b[n=4][T/m^n] polynom_b[n=5][T/m^n] polynom_b[n=6][T/m^n] 
-0.0000000000000000e+00 -5.2547228454057504e-01 +6.9332286722641268e+00 +4.4671939958748457e+00 -1.4572243242582888e+02 -6.8174941628947536e+03 +5.6613315554239112e+05 +4.6132569182047926e+07 
-5.0000000000000003e-02 -5.2547194840378220e-01 +6.9331575996702517e+00 +4.4697456068295720e+00 -1.4589746480652815e+02 -6.8141819014580951e+03 +5.6741484253700660e+05 +4.6071563763272099e+07 
-1.0000000000000001e-01 -5.2547192895361305e-01 +6.9331044286221006e+00 +4.4718982967345227e+00 -1.4609930789072783e+02 -6.8098575515560578e+03 +5.6894017721474369e+05 +4.6005366870473437e+07 
-1.4999999999999999e-01 -5.2547222565642360e-01 +6.9330690752497972e+00 +4.4736513000909017e+00 -1.4632608238979171e+02 -6.8045232021557567e+03 +5.7069486873037426e+05 +4.5934024326822244e+07 
-2.0000000000000001e-01 -5.2547283797865751e-01 +6.9330514556778846e+00 +4.4750038525895333e+00 -1.4657590878162344e+02 -6.7981809725288676e+03 +5.7266462437998853e+05 +4.5857582156869583e+07 
-2.5000000000000000e-01 -5.2547376538666113e-01 +6.9330514860402763e+00 +4.4759551885376778e+00 -1.4684690788463175e+02 -6.7908329473393005e+03 +5.7483515420621785e+05 +4.5776086156455733e+07 
-2.9999999999999999e-01 -5.2547500734689290e-01 +6.9330690824617704e+00 +4.4765045461675461e+00 -1.4713720013332812e+02 -6.7824813152858460e+03 +5.7719216513188672e+05 +4.5689582812912866e+07 
-3.4999999999999998e-01 -5.2547656332579828e-01 +6.9331041610751596e+00 +4.4766511582593358e+00 -1.4744490626225797e+02 -6.7731281157318581e+03 +5.7972136652301007e+05 +4.5598117600173272e+07 
-4.0000000000000002e-01 -5.2547843278978101e-01 +6.9331566380107095e+00 +4.4763942621493840e+00 -1.4776814687863643e+02 -6.7627755166570814e+03 +5.8240846672718960e+05 +4.5501736874493256e+07 
-4.5000000000000001e-01 -5.2548061520533773e-01 +6.9332264293994914e+00 +4.4757330947379650e+00 -1.4810504258884521e+02 -6.7514256686941644e+03 +5.8523917401049274e+05 +4.5400486857585005e+07 
-5.0000000000000000e-01 -5.2548311003893844e-01 +6.9333134513759385e+00 +4.4746668910653034e+00 -1.4845371412835107e+02 -6.7390806767948488e+03 +5.8819919778404280e+05 +4.5294413473239012e+07 
-5.5000000000000004e-01 -5.2548591675704215e-01 +6.9334176200701307e+00 +4.4731948856996757e+00 -1.4881228201963140e+02 -6.7257426311830741e+03 +5.9127424565468368e+05 +4.5183562539779507e+07 
-5.9999999999999998e-01 -5.2548903482621290e-01 +6.9335388516183940e+00 +4.4713163160615270e+00 -1.4917886702049560e+02 -6.7114136989470608e+03 +5.9445002716573479e+05 +4.5067980392514341e+07 
-6.5000000000000002e-01 -5.2549246371293867e-01 +6.9336770621510180e+00 +4.4690304171631157e+00 -1.4955158961502411e+02 -6.6960959830331540e+03 +5.9771224961486959e+05 +4.4947712934440017e+07 
-6.9999999999999996e-01 -5.2549620288372811e-01 +6.9338321678066439e+00 +4.4663364252838500e+00 -1.4992857060346412e+02 -6.6797916219894005e+03 +6.0104662288764701e+05 +4.4822806313505195e+07 
-7.5000000000000000e-01 -5.2550025180515980e-01 +6.9340040847193425e+00 +4.4632335776734422e+00 -1.5030793057299235e+02 -6.6625027815112526e+03 +6.0443885509844951e+05 +4.4693306866011471e+07 
-8.0000000000000004e-01 -5.2550460994377624e-01 +6.9341927290262682e+00 +4.4597211073798873e+00 -1.5068779021579999e+02 -6.6442315129697117e+03 +6.0787465523712477e+05 +4.4559260147261247e+07 
-8.4999999999999998e-01 -5.2550927676615555e-01 +6.9343980168643418e+00 +4.4557982509695790e+00 -1.5106627018873698e+02 -6.6249799622952251e+03 +6.1133973199880403e+05 +4.4420712353881583e+07 
-9.0000000000000002e-01 -5.2551425173889277e-01 +6.9346198643703012e+00 +4.4514642463263776e+00 -1.5144149111235791e+02 -6.6047503158848649e+03 +6.1481979375287949e+05 +4.4277709970578469e+07 
-9.4999999999999996e-01 -5.2551953432854948e-01 +6.9348581876839086e+00 +4.4467183266629320e+00 -1.5181157370718731e+02 -6.5835446285886264e+03 +6.1830054969996738e+05 +4.4130298573240511e+07 
-1.0000000000000000e+00 -5.2552512400178464e-01 +6.9351129029424508e+00 +4.4415597275247336e+00 -1.5217463856655129e+02 -6.5613650269730178e+03 +6.2176770796763175e+05 +4.3978524256142810e+07 
-1.0500000000000000e+00 -5.2553102022519860e-01 +6.9353839262885471e+00 +4.4359876846325648e+00 -1.5252880647768660e+02 -6.5382136368428528e+03 +6.2520697828387842e+05 +4.3822433084879659e+07 
-1.1000000000000001e+00 -5.2553722246539636e-01 +6.9356711738590651e+00 +4.4300014323329995e+00 -1.5287219796522561e+02 -6.5140925518776894e+03 +6.2860406821662420e+05 +4.3662070930144943e+07 
-1.1499999999999999e+00 -5.2554373018906597e-01 +6.9359745617972628e+00 +4.4236002084314485e+00 -1.5320293378422798e+02 -6.4890039572420810e+03 +6.3194468716891413e+05 +4.3497484270114042e+07 
-1.2000000000000000e+00 -5.2555054286285430e-01 +6.9362940062446787e+00 +4.4167832454761147e+00 -1.5351913460577970e+02 -6.4629498987342649e+03 +6.3521454391270701e+05 +4.3328718654473715e+07 
-1.2500000000000000e+00 -5.2555765995343284e-01 +6.9366294233435086e+00 +4.4095497782608213e+00 -1.5381892109100298e+02 -6.4359324845542324e+03 +6.3839934708101174e+05 +4.3155820059468530e+07 
-1.3000000000000000e+00 -5.2556508092749654e-01 +6.9369807292367476e+00 +4.4018990435603138e+00 -1.5410041391012547e+02 -6.4079538779076092e+03 +6.4148480537502258e+05 +4.2978834838636152e+07 
-1.3500000000000001e+00 -5.2557280525172023e-01 +6.9373478400687398e+00 +4.3938302718284898e+00 -1.5436173375968633e+02 -6.3790160710267583e+03 +6.4445662769100268e+05 +4.2797808192922257e+07 
-1.3999999999999999e+00 -5.2558083239280551e-01 +6.9377306719842586e+00 +4.3853427009577119e+00 -1.5460100132712483e+02 -6.3491212597558151e+03 +6.4730052285454120e+05 +4.2612786706627116e+07 
-1.4500000000000000e+00 -5.2558916181751736e-01 +6.9381291411274217e+00 +4.3764355642125601e+00 -1.5481633725846208e+02 -6.3182715165648915e+03 +6.5000219935353403e+05 +4.2423816139909953e+07 
-1.5000000000000000e+00 -5.2559779299252540e-01 +6.9385431636438266e+00 +4.3671080935132327e+00 -1.5500586221399359e+02 -6.2864688784954014e+03 +6.5254736573697755e+05 +4.2230942016019776e+07 
-1.5500000000000000e+00 -5.2560672538460296e-01 +6.9389726556810256e+00 +4.3573595234982916e+00 -1.5516769691965206e+02 -6.2537154570228868e+03 +6.5492173109989730e+05 +4.2034210367515765e+07 
-1.6000000000000001e+00 -5.2561595846050424e-01 +6.9394175333872621e+00 +4.3471890881269637e+00 -1.5529996210037382e+02 -6.2200133499458598e+03 +6.5711100452283316e+05 +4.1833667151370928e+07 
-1.6499999999999999e+00 -5.2562549168698747e-01 +6.9398777129086335e+00 +4.3365960193788737e+00 -1.5540077836100016e+02 -6.1853646016472576e+03 +6.5910089405831869e+05 +4.1629357967733830e+07 
-1.7000000000000000e+00 -5.2563532453082773e-01 +6.9403531103934819e+00 +4.3255795500329297e+00 -1.5546826637305315e+02 -6.1497712793580495e+03 +6.6087710829868331e+05 +4.1421328577308886e+07 
-1.7500000000000000e+00 -5.2564545645881544e-01 +6.9408436419934585e+00 +4.3141389137311590e+00 -1.5550054692216196e+02 -6.1132354767872421e+03 +6.6242535678570997e+05 +4.1209624930328816e+07 
-1.8000000000000000e+00 -5.2565588693771781e-01 +6.9413492238566308e+00 +4.3022733418124988e+00 -1.5549574060725649e+02 -6.0757592238051611e+03 +6.6373134746023791e+05 +4.0994292543057658e+07 
-1.8500000000000001e+00 -5.2566661543435889e-01 +6.9418697721337477e+00 +4.2899820650849119e+00 -1.5545196812214073e+02 -6.0373445436783768e+03 +6.6478078907246527e+05 +4.0775376918997012e+07 
-1.8999999999999999e+00 -5.2567764141558626e-01 +6.9424052029768006e+00 +4.2772643161094974e+00 -1.5536735017490039e+02 -5.9979935075902322e+03 +6.6555939043037454e+05 +4.0552923889522724e+07 
-1.9500000000000000e+00 -5.2568896434817625e-01 +6.9429554325370937e+00 +4.2641193261443116e+00 -1.5524000741905257e+02 -5.9577081508434549e+03 +6.6605285990465304e+05 +4.0326979041406900e+07 
-2.0000000000000000e+00 -5.2570058369898631e-01 +6.9435203769688378e+00 +4.2505463253479077e+00 -1.5506806059410260e+02 -5.9164904838962966e+03 +6.6624690651609423e+05 +4.0097587815255508e+07 
-2.0499999999999998e+00 -5.2571249875173631e-01 +6.9440999560130656e+00 +4.2365461305394643e+00 -1.5485026483897900e+02 -5.8743524283007428e+03 +6.6613178955782147e+05 +3.9864815943836659e+07 
-2.1000000000000001e+00 -5.2572470805554006e-01 +6.9446941048573194e+00 +4.2221256439128272e+00 -1.5458794665723906e+02 -5.8313325965179574e+03 +6.6571615596477117e+05 +3.9628716255444326e+07 
-2.1499999999999999e+00 -5.2573720997521833e-01 +6.9453027598978085e+00 +4.2072933752154826e+00 -1.5428308783704784e+02 -5.7874729412692413e+03 +6.6501329922115069e+05 +3.9389314685449108e+07 
-2.2000000000000002e+00 -5.2575000287567808e-01 +6.9459258575317282e+00 +4.1920578344366275e+00 -1.5393767019188070e+02 -5.7428154240649910e+03 +6.6403651299424283e+05 +3.9146637239107676e+07 
-2.2500000000000000e+00 -5.2576308512180825e-01 +6.9465633341535638e+00 +4.1764275309480361e+00 -1.5355367541193212e+02 -5.6974019877738683e+03 +6.6279908996183518e+05 +3.8900709788537502e+07 
-2.2999999999999998e+00 -5.2577645507855031e-01 +6.9472151261618498e+00 +4.1604109767216642e+00 -1.5313308533687621e+02 -5.6512746421025668e+03 +6.6131432403263205e+05 +3.8651558644914605e+07 
-2.3500000000000001e+00 -5.2579011111075857e-01 +6.9478811699540746e+00 +4.1440166805635608e+00 -1.5267788176377701e+02 -5.6044753134374923e+03 +6.5959550884429307e+05 +3.8399209561920278e+07 
-2.3999999999999999e+00 -5.2580405158338950e-01 +6.9485614019283108e+00 +4.1272531539743964e+00 -1.5219004648879621e+02 -5.5570460010462739e+03 +6.5765593798192614e+05 +3.8143688788467295e+07 
-2.4500000000000002e+00 -5.2581827486135535e-01 +6.9492557584796222e+00 +4.1101289077373524e+00 -1.5167156118568872e+02 -5.5090286802379896e+03 +6.5550890410528367e+05 +3.7885022391474135e+07 
-2.5000000000000000e+00 -5.2583277930964578e-01 +6.9499641760081312e+00 +4.0926524515760603e+00 -1.5112440772215302e+02 -5.4604653008059240e+03 +6.5316770146132330e+05 +3.7623236277868174e+07 
-2.5499999999999998e+00 -5.2584756329319193e-01 +6.9506865909096254e+00 +4.0748322961824170e+00 -1.5055056777793868e+02 -5.4113978338107772e+03 +6.5064562278671656e+05 +3.7358356479251258e+07 
-2.6000000000000001e+00 -5.2586262517693561e-01 +6.9514229395834315e+00 +4.0566769525790400e+00 -1.4995202317606908e+02 -5.3618682588364190e+03 +6.4795596205904800e+05 +3.7090409083052568e+07 
-2.6499999999999999e+00 -5.2587796332590631e-01 +6.9521731584263167e+00 +4.0381949325739335e+00 -1.4933075562343527e+02 -5.3119185766154114e+03 +6.4511201229240862e+05 +3.6819420316794991e+07 
-2.7000000000000002e+00 -5.2589357610502674e-01 +6.9529371838369443e+00 +4.0193947452462861e+00 -1.4868874689949450e+02 -5.2615907135759144e+03 +6.4212706716314133e+05 +3.6545415904962100e+07 
-2.7500000000000000e+00 -5.2590946187934007e-01 +6.9537149522121577e+00 +4.0002849059215491e+00 -1.4802797870786722e+02 -5.2109267606866078e+03 +6.3901441975945642e+05 +3.6268422667321637e+07 
-2.7999999999999998e+00 -5.2592561901385204e-01 +6.9545063999524395e+00 +3.9808739218507294e+00 -1.4735043288851267e+02 -5.1599685899863662e+03 +6.3578736429673608e+05 +3.5988465937259130e+07 
-2.8500000000000001e+00 -5.2594204587353344e-01 +6.9553114634521442e+00 +3.9611703058694370e+00 -1.4665809103273821e+02 -5.1087582237733031e+03 +6.3245919302381622e+05 +3.5705572066267371e+07 
-2.8999999999999999e+00 -5.2595874082344773e-01 +6.9561300791121408e+00 +3.9411825722761198e+00 -1.4595293499339473e+02 -5.0573377189378380e+03 +6.2904320036246860e+05 +3.5419767615290321e+07 
-2.9500000000000002e+00 -5.2597570222861356e-01 +6.9569621833271951e+00 +3.9209192308369172e+00 -1.4523694637471752e+02 -5.0057490122975096e+03 +6.2555267875301850e+05 +3.5131078342988022e+07 
-3.0000000000000000e+00 -5.2599292845407553e-01 +6.9578077124975808e+00 +3.9003887940893147e+00 -1.4451210699906377e+02 -4.9540341104386625e+03 +6.2200092244703893e+05 +3.4839530460552573e+07 
-3.0499999999999998e+00 -5.2601041786486502e-01 +6.9586666030198243e+00 +3.8795997756123235e+00 -1.4378039853512593e+02 -4.9022350488292286e+03 +6.1840122449256503e+05 +3.4545150375211842e+07 
-3.1000000000000001e+00 -5.2602816882609149e-01 +6.9595387912897593e+00 +3.8585606876295473e+00 -1.4304380262623437e+02 -4.8503938205813793e+03 +6.1476687777523848e+05 +3.4247964185856499e+07 
-3.1499999999999999e+00 -5.2604617970280743e-01 +6.9604242137053429e+00 +3.8372800442272612e+00 -1.4230430100544476e+02 -4.7985524648426081e+03 +6.1111117598886939e+05 +3.3947998284059264e+07 
-3.2000000000000002e+00 -5.2606444886007975e-01 +6.9613228066637038e+00 +3.8157663569762104e+00 -1.4156387536836124e+02 -4.7467529587151939e+03 +6.0744741255327279e+05 +3.3645278664736368e+07 
-3.2500000000000000e+00 -5.2608297466297815e-01 +6.9622345065616607e+00 +3.7940281404789467e+00 -1.4082450739536242e+02 -4.6950373517432672e+03 +6.0378888079447544e+05 +3.3339831774807230e+07 
-3.2999999999999998e+00 -5.2610175547663063e-01 +6.9631592497962025e+00 +3.7720739096271934e+00 -1.4008817878979127e+02 -4.6434477010685741e+03 +6.0014887433914444e+05 +3.3031684110332359e+07 
-3.3500000000000001e+00 -5.2612078966616505e-01 +6.9640969727612188e+00 +3.7499121778599922e+00 -1.3935687112064605e+02 -4.5920260193170125e+03 +5.9654068571406906e+05 +3.2720861845312037e+07 
-3.3999999999999999e+00 -5.2614007559664322e-01 +6.9650476118546694e+00 +3.7275514592221755e+00 -1.3863256613345553e+02 -4.5408143349281181e+03 +5.9297760899162281e+05 +3.2407391258373071e+07 
-3.4500000000000002e+00 -5.2615961163322489e-01 +6.9660111034709598e+00 +3.7050002705861611e+00 -1.3791724542722577e+02 -4.4898547516296594e+03 +5.8947293706827471e+05 +3.2091299130890235e+07 
-3.5000000000000000e+00 -5.2617939614102516e-01 +6.9669873840061260e+00 +3.6822671242538774e+00 -1.3721289068153780e+02 -4.4391892441660357e+03 +5.8603996359868348e+05 +3.1772611349881727e+07 
-3.5499999999999998e+00 -5.2619942748520387e-01 +6.9679763898542060e+00 +3.6593605387559927e+00 -1.3652148349305759e+02 -4.3888599497131163e+03 +5.8269198159440060e+05 +3.1451354876405645e+07 
-3.6000000000000001e+00 -5.2621970403093132e-01 +6.9689780574100446e+00 +3.6362890293006167e+00 -1.3584500550471844e+02 -4.3389089167961274e+03 +5.7944228452920052e+05 +3.1127556078098048e+07 
-3.6499999999999999e+00 -5.2624022414327654e-01 +6.9699923230663527e+00 +3.6130611102605208e+00 -1.3518543827446811e+02 -4.2893781680374486e+03 +5.7630416523791302e+05 +3.0801241127836369e+07 
-3.6999999999999900e+00 -5.2626098618750516e-01 +6.9710191232189889e+00 +3.5896853021633848e+00 -1.3454476349950249e+02 -4.2403098863759606e+03 +5.7329091775742674e+05 +3.0472437264272496e+07 
-3.7499999999999898e+00 -5.2628198852875607e-01 +6.9720583942591920e+00 +3.5661701202854359e+00 -1.3392496270102737e+02 -4.1917461091202358e+03 +5.7041583478059503e+05 +3.0141170721253492e+07 
-3.7999999999999901e+00 -5.2630322953217756e-01 +6.9731100725779331e+00 +3.5425240806973419e+00 -1.3332801739808392e+02 -4.1437288944314032e+03 +5.6769220904334134e+05 +2.9807467871965632e+07 
-3.8499999999999899e+00 -5.2632470756302763e-01 +6.9741740945709942e+00 +3.5187557040482802e+00 -1.3275590931061498e+02 -4.0963004164187496e+03 +5.6513333497259370e+05 +2.9471355842162572e+07 
-3.8999999999999901e+00 -5.2634642098644957e-01 +6.9752503966273265e+00 +3.4948735077053037e+00 -1.3221061990069077e+02 -4.0495027585106468e+03 +5.6275250500772370e+05 +2.9132861136093933e+07 
-3.9499999999999900e+00 -5.2636836816770083e-01 +6.9763389151387845e+00 +3.4708860109663839e+00 -1.3169413075253274e+02 -4.0033780557840005e+03 +5.6056301261858444e+05 +2.8792010600795139e+07 
-3.9999999999999898e+00 -5.2639054747194258e-01 +6.9774395864952234e+00 +3.4468017323409277e+00 -1.3120842338539649e+02 -3.9579684119851436e+03 +5.5857815087674814e+05 +2.8448830836236093e+07 
-4.0499999999999901e+00 -5.2641295715956915e-01 +6.9785523246403773e+00 +3.4226286259445162e+00 -1.3075494901636335e+02 -3.9133242810666543e+03 +5.5680775014475302e+05 +2.8103490161258511e+07 
-4.0999999999999899e+00 -5.2643559507096782e-01 +6.9796769473713818e+00 +3.3983734981877789e+00 -1.3033294639390022e+02 -3.8695547274304831e+03 +5.5524695050591626e+05 +2.7756888391793080e+07 
-4.1499999999999897e+00 -5.2645845894129450e-01 +6.9808132468021524e+00 +3.3740431723820294e+00 -1.2994107756329637e+02 -3.8267902171783676e+03 +5.5388699962160119e+05 +2.7410153140152827e+07 
-4.1999999999999904e+00 -5.2648154650586187e-01 +6.9819610150499951e+00 +3.3496444724202719e+00 -1.2957800472459422e+02 -3.7851612334601887e+03 +5.5271914633395802e+05 +2.7064412149467997e+07 
-4.2499999999999902e+00 -5.2650485549987891e-01 +6.9831200442283805e+00 +3.3251842219075556e+00 -1.2924238990729538e+02 -3.7447982561326949e+03 +5.5173463801811868e+05 +2.6720793157039806e+07 
-4.2999999999999901e+00 -5.2652838365857213e-01 +6.9842901264508956e+00 +3.3006692428515567e+00 -1.2893289514908628e+02 -3.7058317209417814e+03 +5.5092472207229980e+05 +2.6380423599487193e+07 
-4.3499999999999899e+00 -5.2655212871718016e-01 +6.9854710538347717e+00 +3.2761063591845967e+00 -1.2864818262624351e+02 -3.6683921158629382e+03 +5.5028064694407303e+05 +2.6044431269192498e+07 
-4.3999999999999897e+00 -5.2657608841090642e-01 +6.9866626184923417e+00 +3.2515023937709699e+00 -1.2838691432317148e+02 -3.6326099093369276e+03 +5.4979365948880743e+05 +2.5713943862655226e+07 
-4.4499999999999904e+00 -5.2660026047502928e-01 +6.9878646125365469e+00 +3.2268641684366912e+00 -1.2814775224167380e+02 -3.5986155343071832e+03 +5.4945500660928874e+05 +2.5390088809279758e+07 
-4.4999999999999902e+00 -5.2662464264476361e-01 +6.9890768280822115e+00 +3.2021985080289292e+00 -1.2792935846143070e+02 -3.5665395144550052e+03 +5.4925593580468779e+05 +2.5073994189095851e+07 
-4.5499999999999901e+00 -5.2664923265530361e-01 +6.9902990572420762e+00 +3.1775122336851402e+00 -1.2773039497242749e+02 -3.5365122721091784e+03 +5.4918769375359255e+05 +2.4766787391160727e+07 
-4.5999999999999899e+00 -5.2667402824189546e-01 +6.9915310921300629e+00 +3.1528121671782392e+00 -1.2754952381327800e+02 -3.5086642532881610e+03 +5.4924152747261897e+05 +2.4469595993565708e+07 
-4.6499999999999897e+00 -5.2669902713976569e-01 +6.9927727248553300e+00 +3.1281051308448586e+00 -1.2738540683184219e+02 -3.4831259132413866e+03 +5.4940868235101015e+05 +2.4183547614820953e+07 
-4.6999999999999904e+00 -5.2672422708416822e-01 +6.9940237475335856e+00 +3.1033979486924022e+00 -1.2723670613579503e+02 -3.4600277659881654e+03 +5.4968040581354150e+05 +2.3909770323094606e+07 
-4.7499999999999902e+00 -5.2674962581026485e-01 +6.9952839522753587e+00 +3.0786974414259771e+00 -1.2710208362685597e+02 -3.4395002296318567e+03 +5.5004794355473539e+05 +2.3649391514527369e+07 
-4.7999999999999901e+00 -5.2677522105327712e-01 +6.9965531311907201e+00 +3.0540104277040827e+00 -1.2698020117877084e+02 -3.4216736745656722e+03 +5.5050254090932652e+05 +2.3403538293403581e+07 
-4.8499999999999899e+00 -5.2680101054842021e-01 +6.9978310763916376e+00 +3.0293437339187479e+00 -1.2686972075223150e+02 -3.4066786789558123e+03 +5.5103544389236672e+05 +2.3173339166370913e+07 
-4.8999999999999897e+00 -5.2682699203096262e-01 +6.9991175799886767e+00 +3.0047041792254787e+00 -1.2676930424557831e+02 -3.3946456338100347e+03 +5.5163789789212798e+05 +2.2959921406411909e+07 
-4.9499999999999904e+00 -5.2685316323599518e-01 +7.0004124340917597e+00 +2.9800985826709456e+00 -1.2667761353304265e+02 -3.3857049265490441e+03 +5.5230114804386022e+05 +2.2764412264460087e+07 
-4.9999999999999902e+00 -5.2687952189880094e-01 +7.0017154308111254e+00 +2.9555337665078807e+00 -1.2659331050125280e+02 -3.3799870328900279e+03 +5.5301643946860789e+05 +2.2587939592571847e+07 
-5.0499999999999901e+00 -5.2690606575677379e-01 +7.0030263554696530e+00 +2.9310168885833439e+00 -1.2651506292429642e+02 -3.3776224296564396e+03 +5.5377501054434117e+05 +2.2431631616414465e+07 
